# Pulseq sequence file
# Created by MATLAB mr toolbox

[VERSION]
major 1
minor 4
revision 1

[DEFINITIONS]
AdcRasterTime 1e-07 
AdcSampleTime 2e-06 
BlockDurationRaster 1e-05 
CameraAcqDuration 0.009 
CameraAqDelay 0 
CameraInterleaveTR 0.138 
CameraNrDynamics 240 
CameraNrSyncDynamics 10 
FOV 0.192 0.192 0.1575 
GradientRasterTime 1e-05 
Matrix 192 16 
Name spir2d 
RadiofrequencyRasterTime 1e-06 
SliceShifts -0.0735 -0.063 -0.0525 -0.042 -0.0315 -0.021 -0.0105 0 0.0105 0.021 0.0315 0.042 0.0525 0.063 0.0735 
TE 0.0025 
TR 0.14 
TotalDuration 39 
TriggerToScannerAcqDelay 0.00062 
phaseDir_SCT 0 1 0 
readDir_SCT -1 0 0 
sliceDir_SCT 0 0 1 

# Format of blocks:
# NUM DUR RF  GX  GY  GZ  ADC  EXT
[BLOCKS]
   1 178   0   0   0   1  0  2
   2 100   0   0   0   2  0  0
   3  61   0   0   0   0  0  3
   4 702   0   3   4   0  1  7
   5 106   0   5   6   7  0  0
   6 12853   0   0   0   0  0  0
   7 178   0   0   0   1  0  8
   8 100   0   0   0   2  0  0
   9  61   0   0   0   0  0  3
  10 702   0   3   4   0  1 12
  11 106   0   5   6   7  0  0
  12 12853   0   0   0   0  0  0
  13 178   0   0   0   1  0 13
  14 100   0   0   0   2  0  0
  15  61   0   0   0   0  0  3
  16 702   0   3   4   0  1 14
  17 106   0   5   6   7  0  0
  18 12853   0   0   0   0  0  0
  19 178   0   0   0   1  0 15
  20 100   0   0   0   2  0  0
  21  61   0   0   0   0  0  3
  22 702   0   3   4   0  1 16
  23 106   0   5   6   7  0  0
  24 12853   0   0   0   0  0  0
  25 178   0   0   0   1  0 17
  26 100   0   0   0   2  0  0
  27  61   0   0   0   0  0  3
  28 702   0   3   4   0  1 18
  29 106   0   5   6   7  0  0
  30 12853   0   0   0   0  0  0
  31 178   0   0   0   1  0 19
  32 100   0   0   0   2  0  0
  33  61   0   0   0   0  0  3
  34 702   0   3   4   0  1 20
  35 106   0   5   6   7  0  0
  36 12853   0   0   0   0  0  0
  37 178   0   0   0   1  0 21
  38 100   0   0   0   2  0  0
  39  61   0   0   0   0  0  3
  40 702   0   3   4   0  1 22
  41 106   0   5   6   7  0  0
  42 12853   0   0   0   0  0  0
  43 178   0   0   0   1  0 23
  44 100   0   0   0   2  0  0
  45  61   0   0   0   0  0  3
  46 702   0   3   4   0  1 24
  47 106   0   5   6   7  0  0
  48 12853   0   0   0   0  0  0
  49 178   0   0   0   1  0 25
  50 100   0   0   0   2  0  0
  51  61   0   0   0   0  0  3
  52 702   0   3   4   0  1 26
  53 106   0   5   6   7  0  0
  54 12853   0   0   0   0  0  0
  55 178   0   0   0   1  0 27
  56 100   0   0   0   2  0  0
  57  61   0   0   0   0  0  3
  58 702   0   3   4   0  1 28
  59 106   0   5   6   7  0  0
  60 12853   0   0   0   0  0  0
  61 400000   0   0   0   0  0 30
  62 178   1   0   0   1  0 31
  63 100   0   0   0   2  0  0
  64  61   0   0   0   0  0  3
  65 702   0   3   4   0  1  7
  66 106   0   5   6   7  0  0
  67 12853   0   0   0   0  0  0
  68 178   2   0   0   1  0 31
  69 100   0   0   0   2  0  0
  70  61   0   0   0   0  0  3
  71 702   0   3   4   0  2 32
  72 106   0   5   6   7  0  0
  73 12853   0   0   0   0  0  0
  74 178   3   0   0   1  0 31
  75 100   0   0   0   2  0  0
  76  61   0   0   0   0  0  3
  77 702   0   3   4   0  3 33
  78 106   0   5   6   7  0  0
  79 12853   0   0   0   0  0  0
  80 178   4   0   0   1  0 31
  81 100   0   0   0   2  0  0
  82  61   0   0   0   0  0  3
  83 702   0   3   4   0  4 34
  84 106   0   5   6   7  0  0
  85 12853   0   0   0   0  0  0
  86 178   5   0   0   1  0 31
  87 100   0   0   0   2  0  0
  88  61   0   0   0   0  0  3
  89 702   0   3   4   0  5 35
  90 106   0   5   6   7  0  0
  91 12853   0   0   0   0  0  0
  92 178   6   0   0   1  0 31
  93 100   0   0   0   2  0  0
  94  61   0   0   0   0  0  3
  95 702   0   3   4   0  6 36
  96 106   0   5   6   7  0  0
  97 12853   0   0   0   0  0  0
  98 178   7   0   0   1  0 31
  99 100   0   0   0   2  0  0
 100  61   0   0   0   0  0  3
 101 702   0   3   4   0  7 37
 102 106   0   5   6   7  0  0
 103 12853   0   0   0   0  0  0
 104 178   8   0   0   1  0 31
 105 100   0   0   0   2  0  0
 106  61   0   0   0   0  0  3
 107 702   0   3   4   0  8 38
 108 106   0   5   6   7  0  0
 109 12853   0   0   0   0  0  0
 110 178   9   0   0   1  0 31
 111 100   0   0   0   2  0  0
 112  61   0   0   0   0  0  3
 113 702   0   3   4   0  9 39
 114 106   0   5   6   7  0  0
 115 12853   0   0   0   0  0  0
 116 178  10   0   0   1  0 31
 117 100   0   0   0   2  0  0
 118  61   0   0   0   0  0  3
 119 702   0   3   4   0 10 40
 120 106   0   5   6   7  0  0
 121 12853   0   0   0   0  0  0
 122 178  11   0   0   1  0 31
 123 100   0   0   0   2  0  0
 124  61   0   0   0   0  0  3
 125 702   0   3   4   0  6 41
 126 106   0   5   6   7  0  0
 127 12853   0   0   0   0  0  0
 128 178  12   0   0   1  0 31
 129 100   0   0   0   2  0  0
 130  61   0   0   0   0  0  3
 131 702   0   3   4   0 11 42
 132 106   0   5   6   7  0  0
 133 12853   0   0   0   0  0  0
 134 178  13   0   0   1  0 31
 135 100   0   0   0   2  0  0
 136  61   0   0   0   0  0  3
 137 702   0   3   4   0 12 43
 138 106   0   5   6   7  0  0
 139 12853   0   0   0   0  0  0
 140 178  14   0   0   1  0 31
 141 100   0   0   0   2  0  0
 142  61   0   0   0   0  0  3
 143 702   0   3   4   0 13 44
 144 106   0   5   6   7  0  0
 145 12853   0   0   0   0  0  0
 146 178  15   0   0   1  0 31
 147 100   0   0   0   2  0  0
 148  61   0   0   0   0  0  3
 149 702   0   3   4   0 14 45
 150 106   0   5   6   7  0  0
 151 12853   0   0   0   0  0  0
 152 178   1   0   0   1  0 31
 153 100   0   0   0   2  0  0
 154  61   0   0   0   0  0  3
 155 702   0   8   9   0  1 47
 156 106   0  10  11   7  0  0
 157 12853   0   0   0   0  0  0
 158 178  16   0   0   1  0 31
 159 100   0   0   0   2  0  0
 160  61   0   0   0   0  0  3
 161 702   0   8   9   0 15 49
 162 106   0  10  11   7  0  0
 163 12853   0   0   0   0  0  0
 164 178  17   0   0   1  0 31
 165 100   0   0   0   2  0  0
 166  61   0   0   0   0  0  3
 167 702   0   8   9   0 16 51
 168 106   0  10  11   7  0  0
 169 12853   0   0   0   0  0  0
 170 178  18   0   0   1  0 31
 171 100   0   0   0   2  0  0
 172  61   0   0   0   0  0  3
 173 702   0   8   9   0 13 53
 174 106   0  10  11   7  0  0
 175 12853   0   0   0   0  0  0
 176 178  19   0   0   1  0 31
 177 100   0   0   0   2  0  0
 178  61   0   0   0   0  0  3
 179 702   0   8   9   0 17 55
 180 106   0  10  11   7  0  0
 181 12853   0   0   0   0  0  0
 182 178  20   0   0   1  0 31
 183 100   0   0   0   2  0  0
 184  61   0   0   0   0  0  3
 185 702   0   8   9   0  5 57
 186 106   0  10  11   7  0  0
 187 12853   0   0   0   0  0  0
 188 178  21   0   0   1  0 31
 189 100   0   0   0   2  0  0
 190  61   0   0   0   0  0  3
 191 702   0   8   9   0 18 59
 192 106   0  10  11   7  0  0
 193 12853   0   0   0   0  0  0
 194 178  22   0   0   1  0 31
 195 100   0   0   0   2  0  0
 196  61   0   0   0   0  0  3
 197 702   0   8   9   0 19 61
 198 106   0  10  11   7  0  0
 199 12853   0   0   0   0  0  0
 200 178   9   0   0   1  0 31
 201 100   0   0   0   2  0  0
 202  61   0   0   0   0  0  3
 203 702   0   8   9   0  9 63
 204 106   0  10  11   7  0  0
 205 12853   0   0   0   0  0  0
 206 178  23   0   0   1  0 31
 207 100   0   0   0   2  0  0
 208  61   0   0   0   0  0  3
 209 702   0   8   9   0 20 65
 210 106   0  10  11   7  0  0
 211 12853   0   0   0   0  0  0
 212 178  24   0   0   1  0 31
 213 100   0   0   0   2  0  0
 214  61   0   0   0   0  0  3
 215 702   0   8   9   0 10 67
 216 106   0  10  11   7  0  0
 217 12853   0   0   0   0  0  0
 218 178  25   0   0   1  0 31
 219 100   0   0   0   2  0  0
 220  61   0   0   0   0  0  3
 221 702   0   8   9   0 18 69
 222 106   0  10  11   7  0  0
 223 12853   0   0   0   0  0  0
 224 178  26   0   0   1  0 31
 225 100   0   0   0   2  0  0
 226  61   0   0   0   0  0  3
 227 702   0   8   9   0 21 71
 228 106   0  10  11   7  0  0
 229 12853   0   0   0   0  0  0
 230 178  27   0   0   1  0 31
 231 100   0   0   0   2  0  0
 232  61   0   0   0   0  0  3
 233 702   0   8   9   0  4 73
 234 106   0  10  11   7  0  0
 235 12853   0   0   0   0  0  0
 236 178  28   0   0   1  0 31
 237 100   0   0   0   2  0  0
 238  61   0   0   0   0  0  3
 239 702   0   8   9   0 22 75
 240 106   0  10  11   7  0  0
 241 12853   0   0   0   0  0  0
 242 178  29   0   0   1  0 31
 243 100   0   0   0   2  0  0
 244  61   0   0   0   0  0  3
 245 702   0  12  13   0 14 76
 246 106   0  14  15   7  0  0
 247 12853   0   0   0   0  0  0
 248 178  16   0   0   1  0 31
 249 100   0   0   0   2  0  0
 250  61   0   0   0   0  0  3
 251 702   0  12  13   0 15 77
 252 106   0  14  15   7  0  0
 253 12853   0   0   0   0  0  0
 254 178  30   0   0   1  0 31
 255 100   0   0   0   2  0  0
 256  61   0   0   0   0  0  3
 257 702   0  12  13   0 23 78
 258 106   0  14  15   7  0  0
 259 12853   0   0   0   0  0  0
 260 178  31   0   0   1  0 31
 261 100   0   0   0   2  0  0
 262  61   0   0   0   0  0  3
 263 702   0  12  13   0  2 79
 264 106   0  14  15   7  0  0
 265 12853   0   0   0   0  0  0
 266 178  32   0   0   1  0 31
 267 100   0   0   0   2  0  0
 268  61   0   0   0   0  0  3
 269 702   0  12  13   0 22 80
 270 106   0  14  15   7  0  0
 271 12853   0   0   0   0  0  0
 272 178  33   0   0   1  0 31
 273 100   0   0   0   2  0  0
 274  61   0   0   0   0  0  3
 275 702   0  12  13   0 17 81
 276 106   0  14  15   7  0  0
 277 12853   0   0   0   0  0  0
 278 178  34   0   0   1  0 31
 279 100   0   0   0   2  0  0
 280  61   0   0   0   0  0  3
 281 702   0  12  13   0 11 82
 282 106   0  14  15   7  0  0
 283 12853   0   0   0   0  0  0
 284 178  35   0   0   1  0 31
 285 100   0   0   0   2  0  0
 286  61   0   0   0   0  0  3
 287 702   0  12  13   0 24 83
 288 106   0  14  15   7  0  0
 289 12853   0   0   0   0  0  0
 290 178  36   0   0   1  0 31
 291 100   0   0   0   2  0  0
 292  61   0   0   0   0  0  3
 293 702   0  12  13   0  7 84
 294 106   0  14  15   7  0  0
 295 12853   0   0   0   0  0  0
 296 178  23   0   0   1  0 31
[RF]
1      109.717 6 7 0 140 -65333.3 0
2      109.717 6 7 0 140 -56000 2.04204
3      109.717 6 7 0 140 -46666.7 6.12611
4      109.717 6 7 0 140 -37333.3 5.96903
5      109.717 6 7 0 140 -28000 1.5708
6      109.717 6 7 0 140 -18666.7 5.49779
7      109.717 6 7 0 140 -9333.33 5.18363
8      109.717 6 7 0 140 0 0.628319
9      109.717 6 7 0 140 9333.33 4.39823
10      109.717 6 7 0 140 18666.7 3.92699
11      109.717 6 7 0 140 28000 5.49779
12      109.717 6 7 0 140 37333.3 2.82743
13      109.717 6 7 0 140 46666.7 2.19911
14      109.717 6 7 0 140 56000 3.61283
15      109.717 6 7 0 140 65333.3 0.785398
16      109.717 6 7 0 140 -56000 1.25664
17      109.717 6 7 0 140 -46666.7 4.55531
18      109.717 6 7 0 140 -37333.3 3.61283
19      109.717 6 7 0 140 -28000 4.71239
20      109.717 6 7 0 140 -18666.7 1.5708
21      109.717 6 7 0 140 -9333.33 0.471239
22      109.717 6 7 0 140 0 1.41372
23      109.717 6 7 0 140 18666.7 3.14159
24      109.717 6 7 0 140 28000 3.92699
25      109.717 6 7 0 140 37333.3 0.471239
26      109.717 6 7 0 140 46666.7 5.34071
27      109.717 6 7 0 140 56000 5.96903
28      109.717 6 7 0 140 65333.3 2.35619
29      109.717 6 7 0 140 -65333.3 0.785398
30      109.717 6 7 0 140 -46666.7 3.76991
31      109.717 6 7 0 140 -37333.3 2.04204
32      109.717 6 7 0 140 -28000 2.35619
33      109.717 6 7 0 140 -18666.7 4.71239
34      109.717 6 7 0 140 -9333.33 2.82743
35      109.717 6 7 0 140 0 2.98451
36      109.717 6 7 0 140 9333.33 5.18363
37      109.717 6 7 0 140 28000 3.14159
38      109.717 6 7 0 140 37333.3 5.18363
39      109.717 6 7 0 140 46666.7 2.98451
40      109.717 6 7 0 140 56000 2.82743
41      109.717 6 7 0 140 65333.3 4.71239
42      109.717 6 7 0 140 -65333.3 2.35619
43      109.717 6 7 0 140 -37333.3 1.25664
44      109.717 6 7 0 140 -28000 0.785398
45      109.717 6 7 0 140 -18666.7 2.35619
46      109.717 6 7 0 140 -9333.33 5.96903
47      109.717 6 7 0 140 0 5.34071
48      109.717 6 7 0 140 9333.33 0.471239
49      109.717 6 7 0 140 37333.3 4.39823
50      109.717 6 7 0 140 46666.7 1.41372
51      109.717 6 7 0 140 56000 0.471239
52      109.717 6 7 0 140 65333.3 1.5708
53      109.717 6 7 0 140 -65333.3 4.71239
54      109.717 6 7 0 140 -56000 3.61283
55      109.717 6 7 0 140 -28000 0
56      109.717 6 7 0 140 -18666.7 0.785398
57      109.717 6 7 0 140 -9333.33 3.61283
58      109.717 6 7 0 140 0 2.19911
59      109.717 6 7 0 140 9333.33 2.82743
60      109.717 6 7 0 140 18666.7 5.49779
61      109.717 6 7 0 140 46666.7 0.628319
62      109.717 6 7 0 140 56000 5.18363
63      109.717 6 7 0 140 65333.3 5.49779
64      109.717 6 7 0 140 -65333.3 1.5708
65      109.717 6 7 0 140 -56000 5.96903
66      109.717 6 7 0 140 -18666.7 0
67      109.717 6 7 0 140 -9333.33 2.04204
68      109.717 6 7 0 140 0 6.12611
69      109.717 6 7 0 140 9333.33 5.96903
70      109.717 6 7 0 140 18666.7 1.5708
71      109.717 6 7 0 140 56000 4.39823
72      109.717 6 7 0 140 65333.3 3.92699
73      109.717 6 7 0 140 -65333.3 5.49779
74      109.717 6 7 0 140 -56000 2.82743
75      109.717 6 7 0 140 -46666.7 2.19911
76      109.717 6 7 0 140 -9333.33 1.25664
77      109.717 6 7 0 140 0 4.55531
78      109.717 6 7 0 140 9333.33 3.61283
79      109.717 6 7 0 140 18666.7 4.71239
80      109.717 6 7 0 140 28000 1.5708
81      109.717 6 7 0 140 65333.3 3.14159
82      109.717 6 7 0 140 -65333.3 3.92699
83      109.717 6 7 0 140 -56000 0.471239
84      109.717 6 7 0 140 -46666.7 5.34071
85      109.717 6 7 0 140 0 3.76991
86      109.717 6 7 0 140 9333.33 2.04204
87      109.717 6 7 0 140 18666.7 2.35619
88      109.717 6 7 0 140 28000 4.71239
89      109.717 6 7 0 140 -65333.3 3.14159
90      109.717 6 7 0 140 -56000 5.18363
91      109.717 6 7 0 140 -46666.7 2.98451
92      109.717 6 7 0 140 -37333.3 2.82743
93      109.717 6 7 0 140 9333.33 1.25664
94      109.717 6 7 0 140 18666.7 0.785398
95      109.717 6 7 0 140 28000 2.35619
96      109.717 6 7 0 140 37333.3 5.96903
97      109.717 6 7 0 140 -56000 4.39823
98      109.717 6 7 0 140 -46666.7 1.41372
99      109.717 6 7 0 140 -37333.3 0.471239
100      109.717 6 7 0 140 18666.7 0
101      109.717 6 7 0 140 28000 0.785398
102      109.717 6 7 0 140 37333.3 3.61283
103      109.717 6 7 0 140 -46666.7 0.628319
104      109.717 6 7 0 140 -37333.3 5.18363
105      109.717 6 7 0 140 -28000 5.49779
106      109.717 6 7 0 140 28000 0
107      109.717 6 7 0 140 37333.3 2.04204
108      109.717 6 7 0 140 46666.7 6.12611
109      109.717 6 7 0 140 -37333.3 4.39823
110      109.717 6 7 0 140 -28000 3.92699
111      109.717 6 7 0 140 37333.3 1.25664
112      109.717 6 7 0 140 46666.7 4.55531
113      109.717 6 7 0 140 -28000 3.14159
114      109.717 6 7 0 140 -18666.7 3.92699
115      109.717 6 7 0 140 46666.7 3.76991
116      109.717 6 7 0 140 56000 2.04204
117      109.717 6 7 0 140 -18666.7 3.14159
118      109.717 6 7 0 140 56000 1.25664
119      109.717 6 7 0 140 -9333.33 4.39823
120      109.717 6 7 0 140 65333.3 0

# Format of arbitrary gradients:
#   time_shape_id of 0 means default timing (stepping with grad_raster starting at 1/2 of grad_raster)
# id amplitude amp_shape_id time_shape_id delay
# ..      Hz/m       ..         ..          us
[GRADIENTS]
3  1.70289e+06 1 0 0
4   1.7029e+06 2 0 0
5      -471656 3 4 0
6      -195560 5 4 0
8  1.70292e+06 8 0 0
9   1.7029e+06 9 0 0
10      -360915 10 4 0
11      -361169 11 4 0
12  1.70291e+06 12 0 0
13  1.70294e+06 13 0 0
14      -195229 14 4 0
15      -471793 15 4 0
16  -1.7029e+06 16 0 0
17   1.7029e+06 17 0 0
20  -1.7029e+06 2 0 0
21       195560 18 4 0
22  -1.7029e+06 9 0 0
23       361169 19 4 0
24 -1.70294e+06 13 0 0
25       471793 20 4 0
26  -1.7029e+06 17 0 0
28 -1.70289e+06 21 0 0
29       471656 22 4 0
30 -1.70292e+06 23 0 0
31       360915 24 4 0
32 -1.70291e+06 25 0 0
33       195229 26 4 0
34   1.7029e+06 27 0 0

# Format of trapezoid gradients:
# id amplitude rise flat fall delay
# ..      Hz/m   us   us   us    us
[TRAP]
 1       888889 140 1500 140   0
 2      -847545 140  720 140   0
 7  1.68776e+06 270  520 270   0
18      179.085  10 1040  10   0
19      -510590  80  900  80   0
27       510590  80  900  80   0
35     -179.085  10 1040  10   0

# Format of ADC events:
# id num dwell delay freq phase
# ..  ..    ns    us   Hz   rad
[ADC]
1 3440 2000 10 0 0
2 3440 2000 10 0 2.04204
3 3440 2000 10 0 6.12611
4 3440 2000 10 0 5.96903
5 3440 2000 10 0 1.5708
6 3440 2000 10 0 5.49779
7 3440 2000 10 0 5.18363
8 3440 2000 10 0 0.628319
9 3440 2000 10 0 4.39823
10 3440 2000 10 0 3.92699
11 3440 2000 10 0 2.82743
12 3440 2000 10 0 2.19911
13 3440 2000 10 0 3.61283
14 3440 2000 10 0 0.785398
15 3440 2000 10 0 1.25664
16 3440 2000 10 0 4.55531
17 3440 2000 10 0 4.71239
18 3440 2000 10 0 0.471239
19 3440 2000 10 0 1.41372
20 3440 2000 10 0 3.14159
21 3440 2000 10 0 5.34071
22 3440 2000 10 0 2.35619
23 3440 2000 10 0 3.76991
24 3440 2000 10 0 2.98451

# Format of extension lists:
# id type ref next_id
# next_id of 0 terminates the list
# Extension list is followed by extension specifications
[EXTENSIONS]
1 1 1 0
2 1 2 1
3 2 1 0
4 1 2 0
5 1 3 4
6 1 4 5
7 1 5 6
8 1 6 1
9 1 3 0
10 1 4 9
11 1 5 10
12 1 6 11
13 1 7 1
14 1 7 11
15 1 8 1
16 1 8 11
17 1 9 1
18 1 9 11
19 1 10 1
20 1 10 11
21 1 11 1
22 1 11 11
23 1 12 1
24 1 12 11
25 1 13 1
26 1 13 11
27 1 14 1
28 1 14 11
29 1 4 4
30 1 5 29
31 1 15 4
32 1 16 6
33 1 17 6
34 1 18 6
35 1 19 6
36 1 20 6
37 1 21 6
38 1 22 6
39 1 23 6
40 1 24 6
41 1 25 6
42 1 26 6
43 1 27 6
44 1 28 6
45 1 29 6
46 1 5 5
47 1 30 46
48 1 16 5
49 1 30 48
50 1 17 5
51 1 30 50
52 1 18 5
53 1 30 52
54 1 19 5
55 1 30 54
56 1 20 5
57 1 30 56
58 1 21 5
59 1 30 58
60 1 22 5
61 1 30 60
62 1 23 5
63 1 30 62
64 1 24 5
65 1 30 64
66 1 25 5
67 1 30 66
68 1 26 5
69 1 30 68
70 1 27 5
71 1 30 70
72 1 28 5
73 1 30 72
74 1 29 5
75 1 30 74
76 1 31 46
77 1 31 48
78 1 31 50
79 1 31 52
80 1 31 54
81 1 31 56
82 1 31 58
83 1 31 60
84 1 31 62
85 1 31 64
86 1 31 66
87 1 31 68
88 1 31 70
89 1 31 72
90 1 31 74
91 1 32 46
92 1 32 48
93 1 32 50
94 1 32 52
95 1 32 54
96 1 32 56
97 1 32 58
98 1 32 60
99 1 32 62
100 1 32 64
101 1 32 66
102 1 32 68
103 1 32 70
104 1 32 72
105 1 32 74
106 1 33 46
107 1 33 48
108 1 33 50
109 1 33 52
110 1 33 54
111 1 33 56
112 1 33 58
113 1 33 60
114 1 33 62
115 1 33 64
116 1 33 66
117 1 33 68
118 1 33 70
119 1 33 72
120 1 33 74
121 1 34 46
122 1 34 48
123 1 34 50
124 1 34 52
125 1 34 54
126 1 34 56
127 1 34 58
128 1 34 60
129 1 34 62
130 1 34 64
131 1 34 66
132 1 34 68
133 1 34 70
134 1 34 72
135 1 34 74
136 1 35 46
137 1 35 48
138 1 35 50
139 1 35 52
140 1 35 54
141 1 35 56
142 1 35 58
143 1 35 60
144 1 35 62
145 1 35 64
146 1 35 66
147 1 35 68
148 1 35 70
149 1 35 72
150 1 35 74
151 1 36 46
152 1 36 48
153 1 36 50
154 1 36 52
155 1 36 54
156 1 36 56
157 1 36 58
158 1 36 60
159 1 36 62
160 1 36 64
161 1 36 66
162 1 36 68
163 1 36 70
164 1 36 72
165 1 36 74
166 1 37 46
167 1 37 48
168 1 37 50
169 1 37 52
170 1 37 54
171 1 37 56
172 1 37 58
173 1 37 60
174 1 37 62
175 1 37 64
176 1 37 66
177 1 37 68
178 1 37 70
179 1 37 72
180 1 37 74
181 1 38 46
182 1 38 48
183 1 38 50
184 1 38 52
185 1 38 54
186 1 38 56
187 1 38 58
188 1 38 60
189 1 38 62
190 1 38 64
191 1 38 66
192 1 38 68
193 1 38 70
194 1 38 72
195 1 38 74
196 1 39 46
197 1 39 48
198 1 39 50
199 1 39 52
200 1 39 54
201 1 39 56
202 1 39 58
203 1 39 60
204 1 39 62
205 1 39 64
206 1 39 66
207 1 39 68
208 1 39 70
209 1 39 72
210 1 39 74
211 1 40 46
212 1 40 48
213 1 40 50
214 1 40 52
215 1 40 54
216 1 40 56
217 1 40 58
218 1 40 60
219 1 40 62
220 1 40 64
221 1 40 66
222 1 40 68
223 1 40 70
224 1 40 72
225 1 40 74
226 1 41 46
227 1 41 48
228 1 41 50
229 1 41 52
230 1 41 54
231 1 41 56
232 1 41 58
233 1 41 60
234 1 41 62
235 1 41 64
236 1 41 66
237 1 41 68
238 1 41 70
239 1 41 72
240 1 41 74
241 1 42 46
242 1 42 48
243 1 42 50
244 1 42 52
245 1 42 54
246 1 42 56
247 1 42 58
248 1 42 60
249 1 42 62
250 1 42 64
251 1 42 66
252 1 42 68
253 1 42 70
254 1 42 72
255 1 42 74
256 1 43 46
257 1 43 48
258 1 43 50
259 1 43 52
260 1 43 54
261 1 43 56
262 1 43 58
263 1 43 60
264 1 43 62
265 1 43 64
266 1 43 66
267 1 43 68
268 1 43 70
269 1 43 72
270 1 43 74
271 1 44 46
272 1 44 48
273 1 44 50
274 1 44 52
275 1 44 54
276 1 44 56
277 1 44 58
278 1 44 60
279 1 44 62
280 1 44 64
281 1 44 66
282 1 44 68
283 1 44 70
284 1 44 72
285 1 44 74

# Extension specification for digital output and input triggers:
# id type channel delay (us) duration (us)
extension TRIGGERS 2
1 1 3 0 10

# Extension specification for setting labels:
# id set labelstring
extension LABELSET 1
1 1 PMC
2 0 AVG
3 0 ECO
4 0 LIN
5 0 SLC
6 1 AVG
7 2 AVG
8 3 AVG
9 4 AVG
10 5 AVG
11 6 AVG
12 7 AVG
13 8 AVG
14 9 AVG
15 0 PMC
16 1 SLC
17 2 SLC
18 3 SLC
19 4 SLC
20 5 SLC
21 6 SLC
22 7 SLC
23 8 SLC
24 9 SLC
25 10 SLC
26 11 SLC
27 12 SLC
28 13 SLC
29 14 SLC
30 1 LIN
31 2 LIN
32 3 LIN
33 4 LIN
34 5 LIN
35 6 LIN
36 7 LIN
37 8 LIN
38 9 LIN
39 10 LIN
40 11 LIN
41 12 LIN
42 13 LIN
43 14 LIN
44 15 LIN

# Sequence Shapes
[SHAPES]

shape_id 1
num_samples 702
0
0.0185617545
0.0371235089
0.0674745609
0.07607159
0.0564729184
0.0208302447
-0.0195375633
-0.0610297254
-0.101296271
-0.13828223
-0.17029466
-0.196055153
-0.214703842
-0.225769744
-0.229128295
-0.22494085
-0.213598127
-0.19566844
-0.171850304
-0.142931993
-0.10975768
-0.073199808
-0.0341363101
0.0065680232
0.0480765495
0.0895927862
0.130370019
0.16971868
0.207011824
0.241688738
0.273256854
0.301293875
0.325450438
0.345445052
0.361061597
0.372154358
0.378643813
0.380501888
0.377763927
0.370522802
0.358905977
0.343102802
0.32333227
0.299849198
0.272950391
0.24294234
0.210174337
0.174993417
0.137779276
0.0989050277
0.0587633195
0.0177378569
-0.0237812039
-0.0654132516
-0.106784603
-0.14753054
-0.187303553
-0.225769729
-0.262610833
-0.297538985
-0.330270664
-0.360564919
-0.388193198
-0.412947693
-0.434668457
-0.453195892
-0.46840848
-0.480224878
-0.48856392
-0.493386026
-0.494688989
-0.492470869
-0.486764261
-0.477642498
-0.465178667
-0.449468818
-0.430646219
-0.408854665
-0.384245903
-0.356994637
-0.32730014
-0.295362628
-0.261392521
-0.225614204
-0.188265514
-0.149583865
-0.109810986
-0.0691943882
-0.0279849982
0.0135676149
0.0552162337
0.0967148704
0.137820652
0.178297272
0.217916287
0.256454893
0.293698504
0.32944219
0.363492112
0.395669525
0.425805961
0.453743627
0.479338767
0.502461947
0.522998361
0.540849813
0.555935238
0.56818481
0.577543871
0.583973571
0.58745054
0.587966889
0.585529794
0.5801619
0.571901414
0.560797973
0.546914368
0.530326695
0.511123563
0.489405382
0.465283774
0.438880856
0.41032833
0.379766843
0.347345237
0.313220005
0.277553276
0.240512936
0.202271682
0.163006313
0.122896721
0.0821251038
0.0408750642
-0.000669126514
-0.042323447
-0.0839049366
-0.125232339
-0.166127034
-0.206413668
-0.245920887
-0.284481977
-0.321935563
-0.358126173
-0.392904843
-0.426129631
-0.457666106
-0.487387875
-0.515176871
-0.540923907
-0.564528842
-0.585900926
-0.604959189
-0.621632411
-0.635859521
-0.647589471
-0.656781624
-0.663405487
-0.667440964
-0.668878162
-0.66771743
-0.663969018
-0.657653269
-0.648800083
-0.637448941
-0.623648557
-0.607456656
-0.588939467
-0.56817162
-0.545235632
-0.520221614
-0.493226782
-0.464355012
-0.433716481
-0.401427126
-0.367608083
-0.332385386
-0.29588944
-0.258254285
-0.219617363
-0.180118745
-0.139900897
-0.0991079492
-0.057885261
-0.0163790395
0.0252645736
0.0668999694
0.108382365
0.149568339
0.190316309
0.230487001
0.269943939
0.308553709
0.346186529
0.382716522
0.418022014
0.451985805
0.484495919
0.515447704
0.544741393
0.572282934
0.597984645
0.621765135
0.643549672
0.663270329
0.680865962
0.696282187
0.709470923
0.720393969
0.729023548
0.735336312
0.739315932
0.740953517
0.740247331
0.737202886
0.731832387
0.724154231
0.714195141
0.701995802
0.687598598
0.671051287
0.6524079
0.631728291
0.609078067
0.584527523
0.558152106
0.53004047
0.500282864
0.468970853
0.436200367
0.402070939
0.366685474
0.330149814
0.292574857
0.254078396
0.214775182
0.174781289
0.134214279
0.0931931225
0.0518381051
0.0102713859
-0.0313844342
-0.0730095406
-0.114484809
-0.155691597
-0.196511663
-0.236825971
-0.276518777
-0.315481845
-0.353606891
-0.390787475
-0.426919186
-0.461897955
-0.495621367
-0.528005742
-0.558965795
-0.588417148
-0.616278405
-0.642469225
-0.666909985
-0.68954946
-0.710333446
-0.729206494
-0.746116369
-0.76101101
-0.773843218
-0.784601357
-0.793262932
-0.799804733
-0.804206367
-0.80644487
-0.806519283
-0.804453702
-0.800255062
-0.793932386
-0.785495422
-0.774954769
-0.762365505
-0.74776959
-0.731203101
-0.712704075
-0.69230709
-0.670081033
-0.646101651
-0.620428507
-0.593123049
-0.564244051
-0.53387333
-0.50210881
-0.469029307
-0.434714406
-0.399242551
-0.362709348
-0.325223074
-0.286875619
-0.247759151
-0.207966816
-0.167604755
-0.126781668
-0.0855957759
-0.0441467565
-0.00253792375
0.0391227906
0.08073392
0.122195941
0.163406245
0.204256006
0.244650764
0.284497775
0.323700468
0.362154844
0.399761103
0.436447568
0.472128606
0.506713213
0.540097579
0.572219297
0.603019064
0.632419996
0.660333272
0.686682593
0.711444943
0.734563163
0.755969398
0.775581214
0.7933935
0.809381631
0.823497657
0.835673469
0.845896654
0.854185362
0.860511846
0.864830538
0.867119596
0.867432947
0.865766411
0.862097915
0.856405086
0.848764512
0.839198391
0.827705867
0.814273808
0.798991255
0.781905741
0.763035212
0.74238197
0.720042239
0.696084737
0.670543694
0.643438867
0.614873325
0.584929532
0.553655873
0.521089856
0.487341175
0.452498778
0.416622872
0.379768556
0.34204962
0.303555708
0.264356813
0.224525295
0.184173271
0.143387686
0.102246923
0.0608392749
0.0192663975
-0.0223877565
-0.0640359241
-0.105580191
-0.146936659
-0.188022368
-0.228739599
-0.26899424
-0.308721357
-0.347836278
-0.386229358
-0.423831062
-0.460587088
-0.496407773
-0.531178752
-0.564871395
-0.597428682
-0.628750493
-0.658745827
-0.687417334
-0.714699236
-0.740477471
-0.764723034
-0.787438876
-0.808547572
-0.827941497
-0.845665174
-0.861694112
-0.875933924
-0.888343972
-0.898988415
-0.907818609
-0.914732978
-0.919798659
-0.923038118
-0.924381003
-0.923792152
-0.921379583
-0.917123191
-0.910942026
-0.90292686
-0.893133237
-0.881513837
-0.86806139
-0.852908899
-0.83605712
-0.817454488
-0.797223548
-0.775429577
-0.752046957
-0.727116091
-0.700771557
-0.67302653
-0.643872382
-0.613453937
-0.581829757
-0.54899907
-0.515056481
-0.480111732
-0.444190022
-0.4073405
-0.369696016
-0.33130872
-0.292216687
-0.252539741
-0.212354113
-0.171710129
-0.130701341
-0.0894186324
-0.0479251468
-0.00630486725
0.0353557661
0.0769867243
0.118496883
0.159812917
0.200867214
0.241559169
0.281817995
0.321592505
0.360779788
0.399293214
0.437110009
0.474133827
0.510252072
0.545470452
0.57970943
0.612831732
0.644859031
0.675739471
0.705322803
0.733624191
0.760630963
0.786195338
0.810303285
0.832990545
0.854121431
0.873644577
0.891642183
0.907998394
0.922625938
0.935644427
0.946964171
0.956469013
0.964303534
0.970408784
0.974649411
0.9771822
0.977981304
0.97690279
0.974103987
0.969592693
0.963225946
0.955153242
0.945414217
0.933874728
0.920671178
0.905871915
0.889356586
0.871247702
0.851636871
0.830420143
0.80770903
0.7836113
0.758041036
0.731102356
0.702912258
0.673403444
0.642676649
0.610851267
0.577879269
0.543860731
0.50891194
0.473004354
0.436239115
0.39872455
0.36045245
0.321524976
0.282039153
0.242007809
0.201496494
0.16057458
0.119427316
0.0781315306
0.0367569821
-0.00462792429
-0.0459474872
-0.087133986
-0.128120167
-0.168832364
-0.209206039
-0.24917562
-0.288670946
-0.327631453
-0.365994004
-0.403693184
-0.440673075
-0.476873523
-0.512235314
-0.546707439
-0.580233627
-0.612761792
-0.644246001
-0.674634908
-0.70388433
-0.731953204
-0.75879666
-0.784378321
-0.80866214
-0.831611101
-0.853196237
-0.873386925
-0.892154937
-0.90947811
-0.925332083
-0.939697717
-0.952558951
-0.963899087
-0.97370722
-0.98197337
-0.988689534
-0.993851764
-0.997457032
-0.999505595
-1
-0.998944982
-0.996347926
-0.99221797
-0.98656765
-0.979410324
-0.970762771
-0.960643851
-0.949072923
-0.936074395
-0.921672008
-0.905891997
-0.888765109
-0.870319045
-0.850588244
-0.829606683
-0.807407769
-0.784032513
-0.759516595
-0.733901486
-0.707230542
-0.679542877
-0.650887444
-0.621306638
-0.590846894
-0.559559251
-0.527486921
-0.49468418
-0.461199111
-0.427080801
-0.392385811
-0.357159986
-0.321460743
-0.285339559
-0.248846993
-0.212042258
-0.174972375
-0.137695972
-0.100265538
-0.0627315574
-0.0251537196
0.0124216843
0.0499364524
0.0873396958
0.12458188
0.161605536
0.198366693
0.234809045
0.270885667
0.306549001
0.341746169
0.376436738
0.41056801
0.444098936
0.476984834
0.509179761
0.540647398
0.57134074
0.601225704
0.630261556
0.658411228
0.68564267
0.711916949
0.737207045
0.761477816
0.784701925
0.806852023
0.827899271
0.84782302
0.866595945
0.884200103
0.900613943
0.915819561
0.929802057
0.94254433
0.954036124
0.964263898
0.973219607
0.980894881
0.987283356
0.992381476
0.996185475
0.99869524
0.999910881
0.999834938
0.998471339
0.99582589
0.991905275
0.986719231
0.980277036
0.972591778
0.963676112
0.953545199
0.942216187
0.929705222
0.916034141
0.901220477
0.885289506
0.868261705
0.850163294
0.831019782
0.810856663
0.789705175
0.767589944
0.744546502
0.720600757
0.69578946
0.670142646
0.64369535
0.616483525
0.588539306
0.559904408
0.530609002
0.500698037
0.470202752
0.439167424
0.407627634
0.375624184
0.343198431
0.31038672
0.277235705
0.243778533
0.21006458
0.176126608
0.142013132
0.107068688
0.0718281608
0.0389361414
0.00870013977
-0.0186901334
-0.0431044434
-0.0644662961
-0.0827463311
-0.0979668901
-0.110176555
-0.119472917
-0.125969767
-0.12980634
-0.131143185
-0.130143505
-0.12698387
-0.121851023
-0.114932702
-0.106416234
-0.096486385
-0.0853249543
-0.0731106146
-0.0600183176
-0.0462179795
-0.0318681858
-0.0175183905
-0.00875919525
0

shape_id 2
num_samples 702
0
0.00871687348
0.017433747
0.0457433021
0.0848793912
0.119841511
0.140506003
0.150020583
0.14956261
0.139500512
0.120646219
0.0941989149
0.0616190896
0.0244970471
-0.0155540319
-0.056977767
-0.0983333884
-0.13832998
-0.175845474
-0.209934013
-0.239824851
