# Pulseq sequence file
# Created by MATLAB mr toolbox

[VERSION]
major 1
minor 4
revision 0

[DEFINITIONS]
AdcRasterTime 1e-07 
BlockDurationRaster 1e-05 
CameraAcqDuration 0.1 
CameraAqDelay 0 
CameraInterleaveTR 0.4 
CameraNrDynamics 240 
CameraNrSyncDynamics 0 
GradientRasterTime 1e-05 
Name gtf 
RadiofrequencyRasterTime 1e-06 

# Format of blocks:
# NUM DUR RF  GX  GY  GZ  ADC  EXT
[BLOCKS]
  1   1   0   0   0   0  0  1
  2 499999   0   0   0   0  0  0
  3   1   0   0   0   0  0  1
  4 499999   0   0   0   0  0  0
  5   1   0   0   0   0  0  1
  6 499999   0   0   0   0  0  0
  7   1   0   0   0   0  0  1
  8 499999   0   0   0   0  0  0
  9   1   0   0   0   0  0  1
 10  50   0   0   0   0  0  0
 11   2   0   1   0   0  0  0
 12 499947   0   0   0   0  0  0
 13   1   0   0   0   0  0  1
 14  50   0   0   0   0  0  0
 15   2   0   1   0   0  0  0
 16 499947   0   0   0   0  0  0
 17   1   0   0   0   0  0  1
 18  50   0   0   0   0  0  0
 19   2   0   1   0   0  0  0
 20 499947   0   0   0   0  0  0
 21   1   0   0   0   0  0  1
 22  50   0   0   0   0  0  0
 23   2   0   1   0   0  0  0
 24 499947   0   0   0   0  0  0
 25   1   0   0   0   0  0  1
 26  50   0   0   0   0  0  0
 27   4   0   2   0   0  0  0
 28 499945   0   0   0   0  0  0
 29   1   0   0   0   0  0  1
 30  50   0   0   0   0  0  0
 31   4   0   2   0   0  0  0
 32 499945   0   0   0   0  0  0
 33   1   0   0   0   0  0  1
 34  50   0   0   0   0  0  0
 35   4   0   2   0   0  0  0
 36 499945   0   0   0   0  0  0
 37   1   0   0   0   0  0  1
 38  50   0   0   0   0  0  0
 39   4   0   2   0   0  0  0
 40 499945   0   0   0   0  0  0
 41   1   0   0   0   0  0  1
 42  50   0   0   0   0  0  0
 43   6   0   3   0   0  0  0
 44 499943   0   0   0   0  0  0
 45   1   0   0   0   0  0  1
 46  50   0   0   0   0  0  0
 47   6   0   3   0   0  0  0
 48 499943   0   0   0   0  0  0
 49   1   0   0   0   0  0  1
 50  50   0   0   0   0  0  0
 51   6   0   3   0   0  0  0
 52 499943   0   0   0   0  0  0
 53   1   0   0   0   0  0  1
 54  50   0   0   0   0  0  0
 55   6   0   3   0   0  0  0
 56 499943   0   0   0   0  0  0
 57   1   0   0   0   0  0  1
 58  50   0   0   0   0  0  0
 59   8   0   4   0   0  0  0
 60 499941   0   0   0   0  0  0
 61   1   0   0   0   0  0  1
 62  50   0   0   0   0  0  0
 63   8   0   4   0   0  0  0
 64 499941   0   0   0   0  0  0
 65   1   0   0   0   0  0  1
 66  50   0   0   0   0  0  0
 67   8   0   4   0   0  0  0
 68 499941   0   0   0   0  0  0
 69   1   0   0   0   0  0  1
 70  50   0   0   0   0  0  0
 71   8   0   4   0   0  0  0
 72 499941   0   0   0   0  0  0
 73   1   0   0   0   0  0  1
 74  50   0   0   0   0  0  0
 75  10   0   5   0   0  0  0
 76 499939   0   0   0   0  0  0
 77   1   0   0   0   0  0  1
 78  50   0   0   0   0  0  0
 79  10   0   5   0   0  0  0
 80 499939   0   0   0   0  0  0
 81   1   0   0   0   0  0  1
 82  50   0   0   0   0  0  0
 83  10   0   5   0   0  0  0
 84 499939   0   0   0   0  0  0
 85   1   0   0   0   0  0  1
 86  50   0   0   0   0  0  0
 87  10   0   5   0   0  0  0
 88 499939   0   0   0   0  0  0
 89   1   0   0   0   0  0  1
 90  50   0   0   0   0  0  0
 91  12   0   6   0   0  0  0
 92 499937   0   0   0   0  0  0
 93   1   0   0   0   0  0  1
 94  50   0   0   0   0  0  0
 95  12   0   6   0   0  0  0
 96 499937   0   0   0   0  0  0
 97   1   0   0   0   0  0  1
 98  50   0   0   0   0  0  0
 99  12   0   6   0   0  0  0
100 499937   0   0   0   0  0  0
101   1   0   0   0   0  0  1
102  50   0   0   0   0  0  0
103  12   0   6   0   0  0  0
104 499937   0   0   0   0  0  0
105   1   0   0   0   0  0  1
106  50   0   0   0   0  0  0
107  14   0   7   0   0  0  0
108 499935   0   0   0   0  0  0
109   1   0   0   0   0  0  1
110  50   0   0   0   0  0  0
111  14   0   7   0   0  0  0
112 499935   0   0   0   0  0  0
113   1   0   0   0   0  0  1
114  50   0   0   0   0  0  0
115  14   0   7   0   0  0  0
116 499935   0   0   0   0  0  0
117   1   0   0   0   0  0  1
118  50   0   0   0   0  0  0
119  14   0   7   0   0  0  0
120 499935   0   0   0   0  0  0
121   1   0   0   0   0  0  1
122  50   0   0   0   0  0  0
123  16   0   8   0   0  0  0
124 499933   0   0   0   0  0  0
125   1   0   0   0   0  0  1
126  50   0   0   0   0  0  0
127  16   0   8   0   0  0  0
128 499933   0   0   0   0  0  0
129   1   0   0   0   0  0  1
130  50   0   0   0   0  0  0
131  16   0   8   0   0  0  0
132 499933   0   0   0   0  0  0
133   1   0   0   0   0  0  1
134  50   0   0   0   0  0  0
135  16   0   8   0   0  0  0
136 499933   0   0   0   0  0  0
137   1   0   0   0   0  0  1
138  50   0   0   0   0  0  0
139  18   0   9   0   0  0  0
140 499931   0   0   0   0  0  0
141   1   0   0   0   0  0  1
142  50   0   0   0   0  0  0
143  18   0   9   0   0  0  0
144 499931   0   0   0   0  0  0
145   1   0   0   0   0  0  1
146  50   0   0   0   0  0  0
147  18   0   9   0   0  0  0
148 499931   0   0   0   0  0  0
149   1   0   0   0   0  0  1
150  50   0   0   0   0  0  0
151  18   0   9   0   0  0  0
152 499931   0   0   0   0  0  0
153   1   0   0   0   0  0  1
154  50   0   0   0   0  0  0
155  20   0  10   0   0  0  0
156 499929   0   0   0   0  0  0
157   1   0   0   0   0  0  1
158  50   0   0   0   0  0  0
159  20   0  10   0   0  0  0
160 499929   0   0   0   0  0  0
161   1   0   0   0   0  0  1
162  50   0   0   0   0  0  0
163  20   0  10   0   0  0  0
164 499929   0   0   0   0  0  0
165   1   0   0   0   0  0  1
166  50   0   0   0   0  0  0
167  20   0  10   0   0  0  0
168 499929   0   0   0   0  0  0
169   1   0   0   0   0  0  1
170  50   0   0   0   0  0  0
171  22   0  11   0   0  0  0
172 499927   0   0   0   0  0  0
173   1   0   0   0   0  0  1
174  50   0   0   0   0  0  0
175  22   0  11   0   0  0  0
176 499927   0   0   0   0  0  0
177   1   0   0   0   0  0  1
178  50   0   0   0   0  0  0
179  22   0  11   0   0  0  0
180 499927   0   0   0   0  0  0
181   1   0   0   0   0  0  1
182  50   0   0   0   0  0  0
183  22   0  11   0   0  0  0
184 499927   0   0   0   0  0  0
185   1   0   0   0   0  0  1
186  50   0   0   0   0  0  0
187  24   0  12   0   0  0  0
188 499925   0   0   0   0  0  0
189   1   0   0   0   0  0  1
190  50   0   0   0   0  0  0
191  24   0  12   0   0  0  0
192 499925   0   0   0   0  0  0
193   1   0   0   0   0  0  1
194  50   0   0   0   0  0  0
195  24   0  12   0   0  0  0
196 499925   0   0   0   0  0  0
197   1   0   0   0   0  0  1
198  50   0   0   0   0  0  0
199  24   0  12   0   0  0  0
200 499925   0   0   0   0  0  0
201   1   0   0   0   0  0  1
202  50   0   0   0   0  0  0
203  26   0  13   0   0  0  0
204 499923   0   0   0   0  0  0
205   1   0   0   0   0  0  1
206  50   0   0   0   0  0  0
207  26   0  13   0   0  0  0
208 499923   0   0   0   0  0  0
209   1   0   0   0   0  0  1
210  50   0   0   0   0  0  0
211  26   0  13   0   0  0  0
212 499923   0   0   0   0  0  0
213   1   0   0   0   0  0  1
214  50   0   0   0   0  0  0
215  26   0  13   0   0  0  0
216 499923   0   0   0   0  0  0
217   1   0   0   0   0  0  1
218  50   0   0   0   0  0  0
219  28   0  14   0   0  0  0
220 499921   0   0   0   0  0  0
221   1   0   0   0   0  0  1
222  50   0   0   0   0  0  0
223  28   0  14   0   0  0  0
224 499921   0   0   0   0  0  0
225   1   0   0   0   0  0  1
226  50   0   0   0   0  0  0
227  28   0  14   0   0  0  0
228 499921   0   0   0   0  0  0
229   1   0   0   0   0  0  1
230  50   0   0   0   0  0  0
231  28   0  14   0   0  0  0
232 499921   0   0   0   0  0  0
233   1   0   0   0   0  0  1
234  50   0   0   0   0  0  0
235  30   0  15   0   0  0  0
236 499919   0   0   0   0  0  0
237   1   0   0   0   0  0  1
238  50   0   0   0   0  0  0
239  30   0  15   0   0  0  0
240 499919   0   0   0   0  0  0
241   1   0   0   0   0  0  1
242  50   0   0   0   0  0  0
243  30   0  15   0   0  0  0
244 499919   0   0   0   0  0  0
245   1   0   0   0   0  0  1
246  50   0   0   0   0  0  0
247  30   0  15   0   0  0  0
248 499919   0   0   0   0  0  0
249   1   0   0   0   0  0  1
250  50   0   0   0   0  0  0
251  32   0  16   0   0  0  0
252 499917   0   0   0   0  0  0
253   1   0   0   0   0  0  1
254  50   0   0   0   0  0  0
255  32   0  16   0   0  0  0
256 499917   0   0   0   0  0  0
257   1   0   0   0   0  0  1
258  50   0   0   0   0  0  0
259  32   0  16   0   0  0  0
260 499917   0   0   0   0  0  0
261   1   0   0   0   0  0  1
262  50   0   0   0   0  0  0
263  32   0  16   0   0  0  0
264 499917   0   0   0   0  0  0
265   1   0   0   0   0  0  1
266  50   0   0   0   0  0  0
267  34   0  17   0   0  0  0
268 499915   0   0   0   0  0  0
269   1   0   0   0   0  0  1
270  50   0   0   0   0  0  0
271  34   0  17   0   0  0  0
272 499915   0   0   0   0  0  0
273   1   0   0   0   0  0  1
274  50   0   0   0   0  0  0
275  34   0  17   0   0  0  0
276 499915   0   0   0   0  0  0
277   1   0   0   0   0  0  1
278  50   0   0   0   0  0  0
279  34   0  17   0   0  0  0
280 499915   0   0   0   0  0  0
281   1   0   0   0   0  0  1
282  50   0   0   0   0  0  0
283  36   0  18   0   0  0  0
284 499913   0   0   0   0  0  0
285   1   0   0   0   0  0  1
286  50   0   0   0   0  0  0
287  36   0  18   0   0  0  0
288 499913   0   0   0   0  0  0
289   1   0   0   0   0  0  1
290  50   0   0   0   0  0  0
291  36   0  18   0   0  0  0
292 499913   0   0   0   0  0  0
293   1   0   0   0   0  0  1
294  50   0   0   0   0  0  0
295  36   0  18   0   0  0  0
296 499913   0   0   0   0  0  0
297   1   0   0   0   0  0  1
298  50   0   0   0   0  0  0
299  38   0  19   0   0  0  0
300 499911   0   0   0   0  0  0
301   1   0   0   0   0  0  1
302  50   0   0   0   0  0  0
303  38   0  19   0   0  0  0
304 499911   0   0   0   0  0  0
305   1   0   0   0   0  0  1
306  50   0   0   0   0  0  0
307  38   0  19   0   0  0  0
308 499911   0   0   0   0  0  0
309   1   0   0   0   0  0  1
310  50   0   0   0   0  0  0
311  38   0  19   0   0  0  0
312 499911   0   0   0   0  0  0
313   1   0   0   0   0  0  1
314 499999   0   0   0   0  0  0
315   1   0   0   0   0  0  1
316 499999   0   0   0   0  0  0
317   1   0   0   0   0  0  1
318 499999   0   0   0   0  0  0
319   1   0   0   0   0  0  1
320 499999   0   0   0   0  0  0
321   1   0   0   0   0  0  1
322  50   0   0   0   0  0  0
323   2   0   0  20   0  0  0
324 499947   0   0   0   0  0  0
325   1   0   0   0   0  0  1
326  50   0   0   0   0  0  0
327   2   0   0  20   0  0  0
328 499947   0   0   0   0  0  0
329   1   0   0   0   0  0  1
330  50   0   0   0   0  0  0
331   2   0   0  20   0  0  0
332 499947   0   0   0   0  0  0
333   1   0   0   0   0  0  1
334  50   0   0   0   0  0  0
335   2   0   0  20   0  0  0
336 499947   0   0   0   0  0  0
337   1   0   0   0   0  0  1
338  50   0   0   0   0  0  0
339   4   0   0  21   0  0  0
340 499945   0   0   0   0  0  0
341   1   0   0   0   0  0  1
342  50   0   0   0   0  0  0
343   4   0   0  21   0  0  0
344 499945   0   0   0   0  0  0
345   1   0   0   0   0  0  1
346  50   0   0   0   0  0  0
347   4   0   0  21   0  0  0
348 499945   0   0   0   0  0  0
349   1   0   0   0   0  0  1
350  50   0   0   0   0  0  0
351   4   0   0  21   0  0  0
352 499945   0   0   0   0  0  0
353   1   0   0   0   0  0  1
354  50   0   0   0   0  0  0
355   6   0   0  22   0  0  0
356 499943   0   0   0   0  0  0
357   1   0   0   0   0  0  1
358  50   0   0   0   0  0  0
359   6   0   0  22   0  0  0
360 499943   0   0   0   0  0  0
361   1   0   0   0   0  0  1
362  50   0   0   0   0  0  0
363   6   0   0  22   0  0  0
364 499943   0   0   0   0  0  0
365   1   0   0   0   0  0  1
366  50   0   0   0   0  0  0
367   6   0   0  22   0  0  0
368 499943   0   0   0   0  0  0
369   1   0   0   0   0  0  1
370  50   0   0   0   0  0  0
371   8   0   0  23   0  0  0
372 499941   0   0   0   0  0  0
373   1   0   0   0   0  0  1
374  50   0   0   0   0  0  0
375   8   0   0  23   0  0  0
376 499941   0   0   0   0  0  0
377   1   0   0   0   0  0  1
378  50   0   0   0   0  0  0
379   8   0   0  23   0  0  0
380 499941   0   0   0   0  0  0
381   1   0   0   0   0  0  1
382  50   0   0   0   0  0  0
383   8   0   0  23   0  0  0
384 499941   0   0   0   0  0  0
385   1   0   0   0   0  0  1
386  50   0   0   0   0  0  0
387  10   0   0  24   0  0  0
388 499939   0   0   0   0  0  0
389   1   0   0   0   0  0  1
390  50   0   0   0   0  0  0
391  10   0   0  24   0  0  0
392 499939   0   0   0   0  0  0
393   1   0   0   0   0  0  1
394  50   0   0   0   0  0  0
395  10   0   0  24   0  0  0
396 499939   0   0   0   0  0  0
397   1   0   0   0   0  0  1
398  50   0   0   0   0  0  0
399  10   0   0  24   0  0  0
400 499939   0   0   0   0  0  0
401   1   0   0   0   0  0  1
402  50   0   0   0   0  0  0
403  12   0   0  25   0  0  0
404 499937   0   0   0   0  0  0
405   1   0   0   0   0  0  1
406  50   0   0   0   0  0  0
407  12   0   0  25   0  0  0
408 499937   0   0   0   0  0  0
409   1   0   0   0   0  0  1
410  50   0   0   0   0  0  0
411  12   0   0  25   0  0  0
412 499937   0   0   0   0  0  0
413   1   0   0   0   0  0  1
414  50   0   0   0   0  0  0
415  12   0   0  25   0  0  0
416 499937   0   0   0   0  0  0
417   1   0   0   0   0  0  1
418  50   0   0   0   0  0  0
419  14   0   0  26   0  0  0
420 499935   0   0   0   0  0  0
421   1   0   0   0   0  0  1
422  50   0   0   0   0  0  0
423  14   0   0  26   0  0  0
424 499935   0   0   0   0  0  0
425   1   0   0   0   0  0  1
426  50   0   0   0   0  0  0
427  14   0   0  26   0  0  0
428 499935   0   0   0   0  0  0
429   1   0   0   0   0  0  1
430  50   0   0   0   0  0  0
431  14   0   0  26   0  0  0
432 499935   0   0   0   0  0  0
433   1   0   0   0   0  0  1
434  50   0   0   0   0  0  0
435  16   0   0  27   0  0  0
436 499933   0   0   0   0  0  0
437   1   0   0   0   0  0  1
438  50   0   0   0   0  0  0
439  16   0   0  27   0  0  0
440 499933   0   0   0   0  0  0
441   1   0   0   0   0  0  1
442  50   0   0   0   0  0  0
443  16   0   0  27   0  0  0
444 499933   0   0   0   0  0  0
445   1   0   0   0   0  0  1
446  50   0   0   0   0  0  0
447  16   0   0  27   0  0  0
448 499933   0   0   0   0  0  0
449   1   0   0   0   0  0  1
450  50   0   0   0   0  0  0
451  18   0   0  28   0  0  0
452 499931   0   0   0   0  0  0
453   1   0   0   0   0  0  1
454  50   0   0   0   0  0  0
455  18   0   0  28   0  0  0
456 499931   0   0   0   0  0  0
457   1   0   0   0   0  0  1
458  50   0   0   0   0  0  0
459  18   0   0  28   0  0  0
460 499931   0   0   0   0  0  0
461   1   0   0   0   0  0  1
462  50   0   0   0   0  0  0
463  18   0   0  28   0  0  0
464 499931   0   0   0   0  0  0
465   1   0   0   0   0  0  1
466  50   0   0   0   0  0  0
467  20   0   0  29   0  0  0
468 499929   0   0   0   0  0  0
469   1   0   0   0   0  0  1
470  50   0   0   0   0  0  0
471  20   0   0  29   0  0  0
472 499929   0   0   0   0  0  0
473   1   0   0   0   0  0  1
474  50   0   0   0   0  0  0
475  20   0   0  29   0  0  0
476 499929   0   0   0   0  0  0
477   1   0   0   0   0  0  1
478  50   0   0   0   0  0  0
479  20   0   0  29   0  0  0
480 499929   0   0   0   0  0  0
481   1   0   0   0   0  0  1
482  50   0   0   0   0  0  0
483  22   0   0  30   0  0  0
484 499927   0   0   0   0  0  0
485   1   0   0   0   0  0  1
486  50   0   0   0   0  0  0
487  22   0   0  30   0  0  0
488 499927   0   0   0   0  0  0
489   1   0   0   0   0  0  1
490  50   0   0   0   0  0  0
491  22   0   0  30   0  0  0
492 499927   0   0   0   0  0  0
493   1   0   0   0   0  0  1
494  50   0   0   0   0  0  0
495  22   0   0  30   0  0  0
496 499927   0   0   0   0  0  0
497   1   0   0   0   0  0  1
498  50   0   0   0   0  0  0
499  24   0   0  31   0  0  0
500 499925   0   0   0   0  0  0
501   1   0   0   0   0  0  1
502  50   0   0   0   0  0  0
503  24   0   0  31   0  0  0
504 499925   0   0   0   0  0  0
505   1   0   0   0   0  0  1
506  50   0   0   0   0  0  0
507  24   0   0  31   0  0  0
508 499925   0   0   0   0  0  0
509   1   0   0   0   0  0  1
510  50   0   0   0   0  0  0
511  24   0   0  31   0  0  0
512 499925   0   0   0   0  0  0
513   1   0   0   0   0  0  1
514  50   0   0   0   0  0  0
515  26   0   0  32   0  0  0
516 499923   0   0   0   0  0  0
517   1   0   0   0   0  0  1
518  50   0   0   0   0  0  0
519  26   0   0  32   0  0  0
520 499923   0   0   0   0  0  0
521   1   0   0   0   0  0  1
522  50   0   0   0   0  0  0
523  26   0   0  32   0  0  0
524 499923   0   0   0   0  0  0
525   1   0   0   0   0  0  1
526  50   0   0   0   0  0  0
527  26   0   0  32   0  0  0
528 499923   0   0   0   0  0  0
529   1   0   0   0   0  0  1
530  50   0   0   0   0  0  0
531  28   0   0  33   0  0  0
532 499921   0   0   0   0  0  0
533   1   0   0   0   0  0  1
534  50   0   0   0   0  0  0
535  28   0   0  33   0  0  0
536 499921   0   0   0   0  0  0
537   1   0   0   0   0  0  1
538  50   0   0   0   0  0  0
539  28   0   0  33   0  0  0
540 499921   0   0   0   0  0  0
541   1   0   0   0   0  0  1
542  50   0   0   0   0  0  0
543  28   0   0  33   0  0  0
544 499921   0   0   0   0  0  0
545   1   0   0   0   0  0  1
546  50   0   0   0   0  0  0
547  30   0   0  34   0  0  0
548 499919   0   0   0   0  0  0
549   1   0   0   0   0  0  1
550  50   0   0   0   0  0  0
551  30   0   0  34   0  0  0
552 499919   0   0   0   0  0  0
553   1   0   0   0   0  0  1
554  50   0   0   0   0  0  0
555  30   0   0  34   0  0  0
556 499919   0   0   0   0  0  0
557   1   0   0   0   0  0  1
558  50   0   0   0   0  0  0
559  30   0   0  34   0  0  0
560 499919   0   0   0   0  0  0
561   1   0   0   0   0  0  1
562  50   0   0   0   0  0  0
563  32   0   0  35   0  0  0
564 499917   0   0   0   0  0  0
565   1   0   0   0   0  0  1
566  50   0   0   0   0  0  0
567  32   0   0  35   0  0  0
568 499917   0   0   0   0  0  0
569   1   0   0   0   0  0  1
570  50   0   0   0   0  0  0
571  32   0   0  35   0  0  0
572 499917   0   0   0   0  0  0
573   1   0   0   0   0  0  1
574  50   0   0   0   0  0  0
575  32   0   0  35   0  0  0
576 499917   0   0   0   0  0  0
577   1   0   0   0   0  0  1
578  50   0   0   0   0  0  0
579  34   0   0  36   0  0  0
580 499915   0   0   0   0  0  0
581   1   0   0   0   0  0  1
582  50   0   0   0   0  0  0
583  34   0   0  36   0  0  0
584 499915   0   0   0   0  0  0
585   1   0   0   0   0  0  1
586  50   0   0   0   0  0  0
587  34   0   0  36   0  0  0
588 499915   0   0   0   0  0  0
589   1   0   0   0   0  0  1
590  50   0   0   0   0  0  0
591  34   0   0  36   0  0  0
592 499915   0   0   0   0  0  0
593   1   0   0   0   0  0  1
594  50   0   0   0   0  0  0
595  36   0   0  37   0  0  0
596 499913   0   0   0   0  0  0
597   1   0   0   0   0  0  1
598  50   0   0   0   0  0  0
599  36   0   0  37   0  0  0
600 499913   0   0   0   0  0  0
601   1   0   0   0   0  0  1
602  50   0   0   0   0  0  0
603  36   0   0  37   0  0  0
604 499913   0   0   0   0  0  0
605   1   0   0   0   0  0  1
606  50   0   0   0   0  0  0
607  36   0   0  37   0  0  0
608 499913   0   0   0   0  0  0
609   1   0   0   0   0  0  1
610  50   0   0   0   0  0  0
611  38   0   0  38   0  0  0
612 499911   0   0   0   0  0  0
613   1   0   0   0   0  0  1
614  50   0   0   0   0  0  0
615  38   0   0  38   0  0  0
616 499911   0   0   0   0  0  0
617   1   0   0   0   0  0  1
618  50   0   0   0   0  0  0
619  38   0   0  38   0  0  0
620 499911   0   0   0   0  0  0
621   1   0   0   0   0  0  1
622  50   0   0   0   0  0  0
623  38   0   0  38   0  0  0
624 499911   0   0   0   0  0  0
625   1   0   0   0   0  0  1
626 499999   0   0   0   0  0  0
627   1   0   0   0   0  0  1
628 499999   0   0   0   0  0  0
629   1   0   0   0   0  0  1
630 499999   0   0   0   0  0  0
631   1   0   0   0   0  0  1
632 499999   0   0   0   0  0  0
633   1   0   0   0   0  0  1
634  50   0   0   0   0  0  0
635   2   0   0   0  20  0  0
636 499947   0   0   0   0  0  0
637   1   0   0   0   0  0  1
638  50   0   0   0   0  0  0
639   2   0   0   0  20  0  0
640 499947   0   0   0   0  0  0
641   1   0   0   0   0  0  1
642  50   0   0   0   0  0  0
643   2   0   0   0  20  0  0
644 499947   0   0   0   0  0  0
645   1   0   0   0   0  0  1
646  50   0   0   0   0  0  0
647   2   0   0   0  20  0  0
648 499947   0   0   0   0  0  0
649   1   0   0   0   0  0  1
650  50   0   0   0   0  0  0
651   4   0   0   0  21  0  0
652 499945   0   0   0   0  0  0
653   1   0   0   0   0  0  1
654  50   0   0   0   0  0  0
655   4   0   0   0  21  0  0
656 499945   0   0   0   0  0  0
657   1   0   0   0   0  0  1
658  50   0   0   0   0  0  0
659   4   0   0   0  21  0  0
660 499945   0   0   0   0  0  0
661   1   0   0   0   0  0  1
662  50   0   0   0   0  0  0
663   4   0   0   0  21  0  0
664 499945   0   0   0   0  0  0
665   1   0   0   0   0  0  1
666  50   0   0   0   0  0  0
667   6   0   0   0  22  0  0
668 499943   0   0   0   0  0  0
669   1   0   0   0   0  0  1
670  50   0   0   0   0  0  0
671   6   0   0   0  22  0  0
672 499943   0   0   0   0  0  0
673   1   0   0   0   0  0  1
674  50   0   0   0   0  0  0
675   6   0   0   0  22  0  0
676 499943   0   0   0   0  0  0
677   1   0   0   0   0  0  1
678  50   0   0   0   0  0  0
679   6   0   0   0  22  0  0
680 499943   0   0   0   0  0  0
681   1   0   0   0   0  0  1
682  50   0   0   0   0  0  0
683   8   0   0   0  23  0  0
684 499941   0   0   0   0  0  0
685   1   0   0   0   0  0  1
686  50   0   0   0   0  0  0
687   8   0   0   0  23  0  0
688 499941   0   0   0   0  0  0
689   1   0   0   0   0  0  1
690  50   0   0   0   0  0  0
691   8   0   0   0  23  0  0
692 499941   0   0   0   0  0  0
693   1   0   0   0   0  0  1
694  50   0   0   0   0  0  0
695   8   0   0   0  23  0  0
696 499941   0   0   0   0  0  0
697   1   0   0   0   0  0  1
698  50   0   0   0   0  0  0
699  10   0   0   0  24  0  0
700 499939   0   0   0   0  0  0
701   1   0   0   0   0  0  1
702  50   0   0   0   0  0  0
703  10   0   0   0  24  0  0
704 499939   0   0   0   0  0  0
705   1   0   0   0   0  0  1
706  50   0   0   0   0  0  0
707  10   0   0   0  24  0  0
708 499939   0   0   0   0  0  0
709   1   0   0   0   0  0  1
710  50   0   0   0   0  0  0
711  10   0   0   0  24  0  0
712 499939   0   0   0   0  0  0
713   1   0   0   0   0  0  1
714  50   0   0   0   0  0  0
715  12   0   0   0  25  0  0
716 499937   0   0   0   0  0  0
717   1   0   0   0   0  0  1
718  50   0   0   0   0  0  0
719  12   0   0   0  25  0  0
720 499937   0   0   0   0  0  0
721   1   0   0   0   0  0  1
722  50   0   0   0   0  0  0
723  12   0   0   0  25  0  0
724 499937   0   0   0   0  0  0
725   1   0   0   0   0  0  1
726  50   0   0   0   0  0  0
727  12   0   0   0  25  0  0
728 499937   0   0   0   0  0  0
729   1   0   0   0   0  0  1
730  50   0   0   0   0  0  0
731  14   0   0   0  26  0  0
732 499935   0   0   0   0  0  0
733   1   0   0   0   0  0  1
734  50   0   0   0   0  0  0
735  14   0   0   0  26  0  0
736 499935   0   0   0   0  0  0
737   1   0   0   0   0  0  1
738  50   0   0   0   0  0  0
739  14   0   0   0  26  0  0
740 499935   0   0   0   0  0  0
741   1   0   0   0   0  0  1
742  50   0   0   0   0  0  0
743  14   0   0   0  26  0  0
744 499935   0   0   0   0  0  0
745   1   0   0   0   0  0  1
746  50   0   0   0   0  0  0
747  16   0   0   0  27  0  0
748 499933   0   0   0   0  0  0
749   1   0   0   0   0  0  1
750  50   0   0   0   0  0  0
751  16   0   0   0  27  0  0
752 499933   0   0   0   0  0  0
753   1   0   0   0   0  0  1
754  50   0   0   0   0  0  0
755  16   0   0   0  27  0  0
756 499933   0   0   0   0  0  0
757   1   0   0   0   0  0  1
758  50   0   0   0   0  0  0
759  16   0   0   0  27  0  0
760 499933   0   0   0   0  0  0
761   1   0   0   0   0  0  1
762  50   0   0   0   0  0  0
763  18   0   0   0  28  0  0
764 499931   0   0   0   0  0  0
765   1   0   0   0   0  0  1
766  50   0   0   0   0  0  0
767  18   0   0   0  28  0  0
768 499931   0   0   0   0  0  0
769   1   0   0   0   0  0  1
770  50   0   0   0   0  0  0
771  18   0   0   0  28  0  0
772 499931   0   0   0   0  0  0
773   1   0   0   0   0  0  1
774  50   0   0   0   0  0  0
775  18   0   0   0  28  0  0
776 499931   0   0   0   0  0  0
777   1   0   0   0   0  0  1
778  50   0   0   0   0  0  0
779  20   0   0   0  29  0  0
780 499929   0   0   0   0  0  0
781   1   0   0   0   0  0  1
782  50   0   0   0   0  0  0
783  20   0   0   0  29  0  0
784 499929   0   0   0   0  0  0
785   1   0   0   0   0  0  1
786  50   0   0   0   0  0  0
787  20   0   0   0  29  0  0
788 499929   0   0   0   0  0  0
789   1   0   0   0   0  0  1
790  50   0   0   0   0  0  0
791  20   0   0   0  29  0  0
792 499929   0   0   0   0  0  0
793   1   0   0   0   0  0  1
794  50   0   0   0   0  0  0
795  22   0   0   0  30  0  0
796 499927   0   0   0   0  0  0
797   1   0   0   0   0  0  1
798  50   0   0   0   0  0  0
799  22   0   0   0  30  0  0
800 499927   0   0   0   0  0  0
801   1   0   0   0   0  0  1
802  50   0   0   0   0  0  0
803  22   0   0   0  30  0  0
804 499927   0   0   0   0  0  0
805   1   0   0   0   0  0  1
806  50   0   0   0   0  0  0
807  22   0   0   0  30  0  0
808 499927   0   0   0   0  0  0
809   1   0   0   0   0  0  1
810  50   0   0   0   0  0  0
811  24   0   0   0  31  0  0
812 499925   0   0   0   0  0  0
813   1   0   0   0   0  0  1
814  50   0   0   0   0  0  0
815  24   0   0   0  31  0  0
816 499925   0   0   0   0  0  0
817   1   0   0   0   0  0  1
818  50   0   0   0   0  0  0
819  24   0   0   0  31  0  0
820 499925   0   0   0   0  0  0
821   1   0   0   0   0  0  1
822  50   0   0   0   0  0  0
823  24   0   0   0  31  0  0
824 499925   0   0   0   0  0  0
825   1   0   0   0   0  0  1
826  50   0   0   0   0  0  0
827  26   0   0   0  32  0  0
828 499923   0   0   0   0  0  0
829   1   0   0   0   0  0  1
830  50   0   0   0   0  0  0
831  26   0   0   0  32  0  0
832 499923   0   0   0   0  0  0
833   1   0   0   0   0  0  1
834  50   0   0   0   0  0  0
835  26   0   0   0  32  0  0
836 499923   0   0   0   0  0  0
837   1   0   0   0   0  0  1
838  50   0   0   0   0  0  0
839  26   0   0   0  32  0  0
840 499923   0   0   0   0  0  0
841   1   0   0   0   0  0  1
842  50   0   0   0   0  0  0
843  28   0   0   0  33  0  0
844 499921   0   0   0   0  0  0
845   1   0   0   0   0  0  1
846  50   0   0   0   0  0  0
847  28   0   0   0  33  0  0
848 499921   0   0   0   0  0  0
849   1   0   0   0   0  0  1
850  50   0   0   0   0  0  0
851  28   0   0   0  33  0  0
852 499921   0   0   0   0  0  0
853   1   0   0   0   0  0  1
854  50   0   0   0   0  0  0
855  28   0   0   0  33  0  0
856 499921   0   0   0   0  0  0
857   1   0   0   0   0  0  1
858  50   0   0   0   0  0  0
859  30   0   0   0  34  0  0
860 499919   0   0   0   0  0  0
861   1   0   0   0   0  0  1
862  50   0   0   0   0  0  0
863  30   0   0   0  34  0  0
864 499919   0   0   0   0  0  0
865   1   0   0   0   0  0  1
866  50   0   0   0   0  0  0
867  30   0   0   0  34  0  0
868 499919   0   0   0   0  0  0
869   1   0   0   0   0  0  1
870  50   0   0   0   0  0  0
871  30   0   0   0  34  0  0
872 499919   0   0   0   0  0  0
873   1   0   0   0   0  0  1
874  50   0   0   0   0  0  0
875  32   0   0   0  35  0  0
876 499917   0   0   0   0  0  0
877   1   0   0   0   0  0  1
878  50   0   0   0   0  0  0
879  32   0   0   0  35  0  0
880 499917   0   0   0   0  0  0
881   1   0   0   0   0  0  1
882  50   0   0   0   0  0  0
883  32   0   0   0  35  0  0
884 499917   0   0   0   0  0  0
885   1   0   0   0   0  0  1
886  50   0   0   0   0  0  0
887  32   0   0   0  35  0  0
888 499917   0   0   0   0  0  0
889   1   0   0   0   0  0  1
890  50   0   0   0   0  0  0
891  34   0   0   0  36  0  0
892 499915   0   0   0   0  0  0
893   1   0   0   0   0  0  1
894  50   0   0   0   0  0  0
895  34   0   0   0  36  0  0
896 499915   0   0   0   0  0  0
897   1   0   0   0   0  0  1
898  50   0   0   0   0  0  0
899  34   0   0   0  36  0  0
900 499915   0   0   0   0  0  0
901   1   0   0   0   0  0  1
902  50   0   0   0   0  0  0
903  34   0   0   0  36  0  0
904 499915   0   0   0   0  0  0
905   1   0   0   0   0  0  1
906  50   0   0   0   0  0  0
907  36   0   0   0  37  0  0
908 499913   0   0   0   0  0  0
909   1   0   0   0   0  0  1
910  50   0   0   0   0  0  0
911  36   0   0   0  37  0  0
912 499913   0   0   0   0  0  0
913   1   0   0   0   0  0  1
914  50   0   0   0   0  0  0
915  36   0   0   0  37  0  0
916 499913   0   0   0   0  0  0
917   1   0   0   0   0  0  1
918  50   0   0   0   0  0  0
919  36   0   0   0  37  0  0
920 499913   0   0   0   0  0  0
921   1   0   0   0   0  0  1
922  50   0   0   0   0  0  0
923  38   0   0   0  38  0  0
924 499911   0   0   0   0  0  0
925   1   0   0   0   0  0  1
926  50   0   0   0   0  0  0
927  38   0   0   0  38  0  0
928 499911   0   0   0   0  0  0
929   1   0   0   0   0  0  1
930  50   0   0   0   0  0  0
931  38   0   0   0  38  0  0
932 499911   0   0   0   0  0  0
933   1   0   0   0   0  0  1
934  50   0   0   0   0  0  0
935  38   0   0   0  38  0  0
936 499911   0   0   0   0  0  0
937   2   0  39   0   0  0  0

# Format of arbitrary gradients:
#   time_shape_id of 0 means default timing (stepping with grad_raster starting at 1/2 of grad_raster)
# id amplitude amp_shape_id time_shape_id delay
# ..      Hz/m       ..         ..          us
[GRADIENTS]
39            0 1 2 0

# Format of trapezoid gradients:
# id amplitude rise flat fall delay
# ..      Hz/m   us   us   us    us
[TRAP]
 1     -76636.8  10    0  10   0
 2      -153274  20    0  20   0
 3      -229910  30    0  30   0
 4      -306547  40    0  40   0
 5      -383184  50    0  50   0
 6      -459821  60    0  60   0
 7      -536458  70    0  70   0
 8      -613094  80    0  80   0
 9      -689731  90    0  90   0
10      -766368 100    0 100   0
11      -843005 110    0 110   0
