# Pulseq sequence file
# Created by MATLAB mr toolbox

[VERSION]
major 1
minor 4
revision 0

[DEFINITIONS]
AdcRasterTime 1e-07 
BlockDurationRaster 1e-05 
CameraAcqDuration 0.021 
CameraAqDelay 0 
CameraInterleaveTR 0.15 
CameraNrDynamics 1 
CameraNrSyncDynamics 0 
GradientRasterTime 1e-05 
Name gtf 
RadiofrequencyRasterTime 1e-06 

# Format of blocks:
# NUM DUR RF  GX  GY  GZ  ADC  EXT
[BLOCKS]
  1   1   0   0   0   0  0  1
  2 1999   0   0   0   0  0  0
  3   1   0   0   0   0  0  1
  4  50   0   0   0   0  0  0
  5   6   0   1   0   0  0  0
  6 1943   0   0   0   0  0  0
  7   1   0   0   0   0  0  1
  8  50   0   0   0   0  0  0
  9   8   0   2   0   0  0  0
 10 1941   0   0   0   0  0  0
 11   1   0   0   0   0  0  1
 12  50   0   0   0   0  0  0
 13  10   0   3   0   0  0  0
 14 1939   0   0   0   0  0  0
 15   1   0   0   0   0  0  1
 16  50   0   0   0   0  0  0
 17  12   0   4   0   0  0  0
 18 1937   0   0   0   0  0  0
 19   1   0   0   0   0  0  1
 20  50   0   0   0   0  0  0
 21  14   0   5   0   0  0  0
 22 1935   0   0   0   0  0  0
 23   1   0   0   0   0  0  1
 24  50   0   0   0   0  0  0
 25  16   0   6   0   0  0  0
 26 1933   0   0   0   0  0  0
 27   1   0   0   0   0  0  1
 28  50   0   0   0   0  0  0
 29  18   0   7   0   0  0  0
 30 1931   0   0   0   0  0  0
 31   1   0   0   0   0  0  1
 32  50   0   0   0   0  0  0
 33  20   0   8   0   0  0  0
 34 1929   0   0   0   0  0  0
 35   1   0   0   0   0  0  1
 36  50   0   0   0   0  0  0
 37  22   0   9   0   0  0  0
 38 1927   0   0   0   0  0  0
 39   1   0   0   0   0  0  1
 40  50   0   0   0   0  0  0
 41  24   0  10   0   0  0  0
 42 1925   0   0   0   0  0  0
 43   1   0   0   0   0  0  1
 44  50   0   0   0   0  0  0
 45  26   0  11   0   0  0  0
 46 1923   0   0   0   0  0  0
 47   1   0   0   0   0  0  1
 48  50   0   0   0   0  0  0
 49  28   0  12   0   0  0  0
 50 1921   0   0   0   0  0  0
 51   1   0   0   0   0  0  1
 52  50   0   0   0   0  0  0
 53  30   0  13   0   0  0  0
 54 1919   0   0   0   0  0  0
 55   1   0   0   0   0  0  1
 56  50   0   0   0   0  0  0
 57  32   0  14   0   0  0  0
 58 1917   0   0   0   0  0  0
 59   1   0   0   0   0  0  1
 60  50   0   0   0   0  0  0
 61  34   0  15   0   0  0  0
 62 1915   0   0   0   0  0  0
 63   1   0   0   0   0  0  1
 64  50   0   0   0   0  0  0
 65  36   0  16   0   0  0  0
 66 1913   0   0   0   0  0  0
 67   1   0   0   0   0  0  1
 68 1999   0   0   0   0  0  0
 69   1   0   0   0   0  0  1
 70  50   0   0   0   0  0  0
 71   6   0   0  17   0  0  0
 72 1943   0   0   0   0  0  0
 73   1   0   0   0   0  0  1
 74  50   0   0   0   0  0  0
 75   8   0   0  18   0  0  0
 76 1941   0   0   0   0  0  0
 77   1   0   0   0   0  0  1
 78  50   0   0   0   0  0  0
 79  10   0   0  19   0  0  0
 80 1939   0   0   0   0  0  0
 81   1   0   0   0   0  0  1
 82  50   0   0   0   0  0  0
 83  12   0   0  20   0  0  0
 84 1937   0   0   0   0  0  0
 85   1   0   0   0   0  0  1
 86  50   0   0   0   0  0  0
 87  14   0   0  21   0  0  0
 88 1935   0   0   0   0  0  0
 89   1   0   0   0   0  0  1
 90  50   0   0   0   0  0  0
 91  16   0   0  22   0  0  0
 92 1933   0   0   0   0  0  0
 93   1   0   0   0   0  0  1
 94  50   0   0   0   0  0  0
 95  18   0   0  23   0  0  0
 96 1931   0   0   0   0  0  0
 97   1   0   0   0   0  0  1
 98  50   0   0   0   0  0  0
 99  20   0   0  24   0  0  0
100 1929   0   0   0   0  0  0
101   1   0   0   0   0  0  1
102  50   0   0   0   0  0  0
103  22   0   0  25   0  0  0
104 1927   0   0   0   0  0  0
105   1   0   0   0   0  0  1
106  50   0   0   0   0  0  0
107  24   0   0  26   0  0  0
108 1925   0   0   0   0  0  0
109   1   0   0   0   0  0  1
110  50   0   0   0   0  0  0
111  26   0   0  27   0  0  0
112 1923   0   0   0   0  0  0
113   1   0   0   0   0  0  1
114  50   0   0   0   0  0  0
115  28   0   0  28   0  0  0
116 1921   0   0   0   0  0  0
117   1   0   0   0   0  0  1
118  50   0   0   0   0  0  0
119  30   0   0  29   0  0  0
120 1919   0   0   0   0  0  0
121   1   0   0   0   0  0  1
122  50   0   0   0   0  0  0
123  32   0   0  30   0  0  0
124 1917   0   0   0   0  0  0
125   1   0   0   0   0  0  1
126  50   0   0   0   0  0  0
127  34   0   0  31   0  0  0
128 1915   0   0   0   0  0  0
129   1   0   0   0   0  0  1
130  50   0   0   0   0  0  0
131  36   0   0  32   0  0  0
132 1913   0   0   0   0  0  0
133   1   0   0   0   0  0  1
134 1999   0   0   0   0  0  0
135   1   0   0   0   0  0  1
136  50   0   0   0   0  0  0
137   6   0   0   0  17  0  0
138 1943   0   0   0   0  0  0
139   1   0   0   0   0  0  1
140  50   0   0   0   0  0  0
141   8   0   0   0  18  0  0
142 1941   0   0   0   0  0  0
143   1   0   0   0   0  0  1
144  50   0   0   0   0  0  0
145  10   0   0   0  19  0  0
146 1939   0   0   0   0  0  0
147   1   0   0   0   0  0  1
148  50   0   0   0   0  0  0
149  12   0   0   0  20  0  0
150 1937   0   0   0   0  0  0
151   1   0   0   0   0  0  1
152  50   0   0   0   0  0  0
153  14   0   0   0  21  0  0
154 1935   0   0   0   0  0  0
155   1   0   0   0   0  0  1
156  50   0   0   0   0  0  0
157  16   0   0   0  22  0  0
158 1933   0   0   0   0  0  0
159   1   0   0   0   0  0  1
160  50   0   0   0   0  0  0
161  18   0   0   0  23  0  0
162 1931   0   0   0   0  0  0
163   1   0   0   0   0  0  1
164  50   0   0   0   0  0  0
165  20   0   0   0  24  0  0
166 1929   0   0   0   0  0  0
167   1   0   0   0   0  0  1
168  50   0   0   0   0  0  0
169  22   0   0   0  25  0  0
170 1927   0   0   0   0  0  0
171   1   0   0   0   0  0  1
172  50   0   0   0   0  0  0
173  24   0   0   0  26  0  0
174 1925   0   0   0   0  0  0
175   1   0   0   0   0  0  1
176  50   0   0   0   0  0  0
177  26   0   0   0  27  0  0
178 1923   0   0   0   0  0  0
179   1   0   0   0   0  0  1
180  50   0   0   0   0  0  0
181  28   0   0   0  28  0  0
182 1921   0   0   0   0  0  0
183   1   0   0   0   0  0  1
184  50   0   0   0   0  0  0
185  30   0   0   0  29  0  0
186 1919   0   0   0   0  0  0
187   1   0   0   0   0  0  1
188  50   0   0   0   0  0  0
189  32   0   0   0  30  0  0
190 1917   0   0   0   0  0  0
191   1   0   0   0   0  0  1
192  50   0   0   0   0  0  0
193  34   0   0   0  31  0  0
194 1915   0   0   0   0  0  0
195   1   0   0   0   0  0  1
196  50   0   0   0   0  0  0
197  36   0   0   0  32  0  0
198 1913   0   0   0   0  0  0
199   2   0  33   0   0  0  0

# Format of arbitrary gradients:
#   time_shape_id of 0 means default timing (stepping with grad_raster starting at 1/2 of grad_raster)
# id amplitude amp_shape_id time_shape_id delay
# ..      Hz/m       ..         ..          us
[GRADIENTS]
33            0 1 2 0

# Format of trapezoid gradients:
# id amplitude rise flat fall delay
# ..      Hz/m   us   us   us    us
[TRAP]
 1      -204365  30    0  30   0
 2      -272486  40    0  40   0
 3      -340608  50    0  50   0
 4      -408730  60    0  60   0
 5      -476851  70    0  70   0
 6      -544973  80    0  80   0
 7      -613094  90    0  90   0
 8      -681216 100    0 100   0
 9      -749338 110    0 110   0
10      -817459 120    0 120   0
11      -885581 130    0 130   0
12      -953702 140    0 140   0
13 -1.02182e+06 150    0 150   0
14 -1.08995e+06 160    0 160   0
15 -1.15807e+06 170    0 170   0
16 -1.22619e+06 180    0 180   0
17       204365  30    0  30   0
18       272486  40    0  40   0
19       340608  50    0  50   0
20       408730  60    0  60   0
21       476851  70    0  70   0
22       544973  80    0  80   0
23       613094  90    0  90   0
24       681216 100    0 100   0
25       749338 110    0 110   0
26       817459 120    0 120   0
27       885581 130    0 130   0
28       953702 140    0 140   0
29  1.02182e+06 150    0 150   0
30  1.08995e+06 160    0 160   0
31  1.15807e+06 170    0 170   0
32  1.22619e+06 180    0 180   0

# Format of extension lists:
# id type ref next_id
# next_id of 0 terminates the list
# Extension list is followed by extension specifications
[EXTENSIONS]
1 1 1 0

# Extension specification for digital output and input triggers:
# id type channel delay (us) duration (us)
extension TRIGGERS 1
1 1 3 0 10

# Sequence Shapes
[SHAPES]

shape_id 1
num_samples 2
0
0

shape_id 2
num_samples 2
0.5
1.5


[SIGNATURE]
# This is the hash of the Pulseq file, calculated right before the [SIGNATURE] section was added
# It can be reproduced/verified with md5sum if the file trimmed to the position right above [SIGNATURE]
# The new line character preceding [SIGNATURE] BELONGS to the signature (and needs to be sripped away for recalculating/verification)
Type md5
Hash 0a2db31fd072ecb2524bbdbbc7da1b23
