# Pulseq sequence file
# Created by MATLAB mr toolbox

[VERSION]
major 1
minor 4
revision 0

[DEFINITIONS]
ADCSampleTime 2.5e-05 
AdcRasterTime 1e-07 
BlockDurationRaster 1e-05 
CameraAcqDuration 0.01275 
CameraAqDelay 0 
CameraInterleaveTR 0.124 
CameraNrDynamics 640 
CameraNrSyncDynamics 10 
FOV 0.2 0.2 0.015 
GradientRasterTime 1e-05 
Matrix 128 128 
Name gre2d 
RadiofrequencyRasterTime 1e-06 
TE 0.006 0.012 
TR 0.025 
TotalDuration 20.25 
TriggerToScannerAcqDelay 0.00251 

# Format of blocks:
# NUM DUR RF  GX  GY  GZ  ADC  EXT
[BLOCKS]
   1 178   0   0   0   1  0  2
   2 100   0   0   0   2  0  0
   3 147   0   0   0   0  0  3
   4 100   0   3   4   0  0  0
   5 328   0   5   0   0  1  7
   6 272   0   6   0   0  0  0
   7 328   0   5   0   0  1  8
   8 131   0   7   8   9  0  0
   9 916   0   0   0   0  0  0
  10 178   0   0   0   1  0  9
  11 100   0   0   0   2  0  0
  12 147   0   0   0   0  0  3
  13 100   0   3   4   0  0  0
  14 328   0   5   0   0  1 13
  15 272   0   6   0   0  0  0
  16 328   0   5   0   0  1  8
  17 131   0   7   8   9  0  0
  18 916   0   0   0   0  0  0
  19 178   0   0   0   1  0 14
  20 100   0   0   0   2  0  0
  21 147   0   0   0   0  0  3
  22 100   0   3   4   0  0  0
  23 328   0   5   0   0  1 15
  24 272   0   6   0   0  0  0
  25 328   0   5   0   0  1  8
  26 131   0   7   8   9  0  0
  27 916   0   0   0   0  0  0
  28 178   0   0   0   1  0 16
  29 100   0   0   0   2  0  0
  30 147   0   0   0   0  0  3
  31 100   0   3   4   0  0  0
  32 328   0   5   0   0  1 17
  33 272   0   6   0   0  0  0
  34 328   0   5   0   0  1  8
  35 131   0   7   8   9  0  0
  36 916   0   0   0   0  0  0
  37 178   0   0   0   1  0 18
  38 100   0   0   0   2  0  0
  39 147   0   0   0   0  0  3
  40 100   0   3   4   0  0  0
  41 328   0   5   0   0  1 19
  42 272   0   6   0   0  0  0
  43 328   0   5   0   0  1  8
  44 131   0   7   8   9  0  0
  45 916   0   0   0   0  0  0
  46 178   0   0   0   1  0 20
  47 100   0   0   0   2  0  0
  48 147   0   0   0   0  0  3
  49 100   0   3   4   0  0  0
  50 328   0   5   0   0  1 21
  51 272   0   6   0   0  0  0
  52 328   0   5   0   0  1  8
  53 131   0   7   8   9  0  0
  54 916   0   0   0   0  0  0
  55 178   0   0   0   1  0 22
  56 100   0   0   0   2  0  0
  57 147   0   0   0   0  0  3
  58 100   0   3   4   0  0  0
  59 328   0   5   0   0  1 23
  60 272   0   6   0   0  0  0
  61 328   0   5   0   0  1  8
  62 131   0   7   8   9  0  0
  63 916   0   0   0   0  0  0
  64 178   0   0   0   1  0 24
  65 100   0   0   0   2  0  0
  66 147   0   0   0   0  0  3
  67 100   0   3   4   0  0  0
  68 328   0   5   0   0  1 25
  69 272   0   6   0   0  0  0
  70 328   0   5   0   0  1  8
  71 131   0   7   8   9  0  0
  72 916   0   0   0   0  0  0
  73 178   0   0   0   1  0 26
  74 100   0   0   0   2  0  0
  75 147   0   0   0   0  0  3
  76 100   0   3   4   0  0  0
  77 328   0   5   0   0  1 27
  78 272   0   6   0   0  0  0
  79 328   0   5   0   0  1  8
  80 131   0   7   8   9  0  0
  81 916   0   0   0   0  0  0
  82 178   0   0   0   1  0 28
  83 100   0   0   0   2  0  0
  84 147   0   0   0   0  0  3
  85 100   0   3   4   0  0  0
  86 328   0   5   0   0  1 29
  87 272   0   6   0   0  0  0
  88 328   0   5   0   0  1  8
  89 131   0   7   8   9  0  0
  90 916   0   0   0   0  0  0
  91 400000   0   0   0   0  0 31
  92 178   1   0   0   1  0 32
  93 100   0   0   0   2  0  0
  94 147   0   0   0   0  0  3
  95 100   0   3   4   0  0  0
  96 328   0   5   0   0  1  7
  97 272   0   6   0   0  0  0
  98 328   0   5   0   0  1  8
  99 131   0   7   8   9  0  0
 100 916   0   0   0   0  0  0
 101 178   2   0   0   1  0 32
 102 100   0   0   0   2  0  0
 103 147   0   0   0   0  0  3
 104 100   0   3   4   0  0  0
 105 328   0   5   0   0  2 33
 106 272   0   6   0   0  0  0
 107 328   0   5   0   0  2  8
 108 131   0   7   8   9  0  0
 109 916   0   0   0   0  0  0
 110 178   3   0   0   1  0 32
 111 100   0   0   0   2  0  0
 112 147   0   0   0   0  0  3
 113 100   0   3   4   0  0  0
 114 328   0   5   0   0  3 34
 115 272   0   6   0   0  0  0
 116 328   0   5   0   0  3  8
 117 131   0   7   8   9  0  0
 118 916   0   0   0   0  0  0
 119 178   4   0   0   1  0 32
 120 100   0   0   0   2  0  0
 121 147   0   0   0   0  0  3
 122 100   0   3   4   0  0  0
 123 328   0   5   0   0  4 35
 124 272   0   6   0   0  0  0
 125 328   0   5   0   0  4  8
 126 131   0   7   8   9  0  0
 127 916   0   0   0   0  0  0
 128 178   5   0   0   1  0 32
 129 100   0   0   0   2  0  0
 130 147   0   0   0   0  0  3
 131 100   0   3   4   0  0  0
 132 328   0   5   0   0  5 36
 133 272   0   6   0   0  0  0
 134 328   0   5   0   0  5  8
 135 131   0   7   8   9  0  0
 136 916   0   0   0   0  0  0
 137 178   6   0   0   1  0 32
 138 100   0   0   0   2  0  0
 139 147   0   0   0   0  0  3
 140 100   0   3  10   0  0  0
 141 328   0   5   0   0  6 38
 142 272   0   6   0   0  0  0
 143 328   0   5   0   0  6  8
 144 131   0   7  11   9  0  0
 145 916   0   0   0   0  0  0
 146 178   7   0   0   1  0 32
 147 100   0   0   0   2  0  0
 148 147   0   0   0   0  0  3
 149 100   0   3  10   0  0  0
 150 328   0   5   0   0  7 40
 151 272   0   6   0   0  0  0
 152 328   0   5   0   0  7  8
 153 131   0   7  11   9  0  0
 154 916   0   0   0   0  0  0
 155 178   8   0   0   1  0 32
 156 100   0   0   0   2  0  0
 157 147   0   0   0   0  0  3
 158 100   0   3  10   0  0  0
 159 328   0   5   0   0  8 42
 160 272   0   6   0   0  0  0
 161 328   0   5   0   0  8  8
 162 131   0   7  11   9  0  0
 163 916   0   0   0   0  0  0
 164 178   9   0   0   1  0 32
 165 100   0   0   0   2  0  0
 166 147   0   0   0   0  0  3
 167 100   0   3  10   0  0  0
 168 328   0   5   0   0  9 44
 169 272   0   6   0   0  0  0
 170 328   0   5   0   0  9  8
 171 131   0   7  11   9  0  0
 172 916   0   0   0   0  0  0
 173 178  10   0   0   1  0 32
 174 100   0   0   0   2  0  0
 175 147   0   0   0   0  0  3
 176 100   0   3  10   0  0  0
 177 328   0   5   0   0 10 46
 178 272   0   6   0   0  0  0
 179 328   0   5   0   0 10  8
 180 131   0   7  11   9  0  0
 181 916   0   0   0   0  0  0
 182 178   6   0   0   1  0 32
 183 100   0   0   0   2  0  0
 184 147   0   0   0   0  0  3
 185 100   0   3  12   0  0  0
 186 328   0   5   0   0  6 47
 187 272   0   6   0   0  0  0
 188 328   0   5   0   0  6  8
 189 131   0   7  13   9  0  0
 190 916   0   0   0   0  0  0
 191 178  11   0   0   1  0 32
 192 100   0   0   0   2  0  0
 193 147   0   0   0   0  0  3
 194 100   0   3  12   0  0  0
 195 328   0   5   0   0 11 48
 196 272   0   6   0   0  0  0
 197 328   0   5   0   0 11  8
 198 131   0   7  13   9  0  0
 199 916   0   0   0   0  0  0
 200 178  12   0   0   1  0 32
 201 100   0   0   0   2  0  0
 202 147   0   0   0   0  0  3
 203 100   0   3  12   0  0  0
 204 328   0   5   0   0 12 49
 205 272   0   6   0   0  0  0
 206 328   0   5   0   0 12  8
 207 131   0   7  13   9  0  0
 208 916   0   0   0   0  0  0
 209 178  13   0   0   1  0 32
 210 100   0   0   0   2  0  0
 211 147   0   0   0   0  0  3
 212 100   0   3  12   0  0  0
 213 328   0   5   0   0 13 50
 214 272   0   6   0   0  0  0
 215 328   0   5   0   0 13  8
 216 131   0   7  13   9  0  0
 217 916   0   0   0   0  0  0
 218 178  14   0   0   1  0 32
 219 100   0   0   0   2  0  0
 220 147   0   0   0   0  0  3
 221 100   0   3  12   0  0  0
 222 328   0   5   0   0 14 51
 223 272   0   6   0   0  0  0
 224 328   0   5   0   0 14  8
 225 131   0   7  13   9  0  0
 226 916   0   0   0   0  0  0
 227 178   1   0   0   1  0 32
 228 100   0   0   0   2  0  0
 229 147   0   0   0   0  0  3
 230 100   0   3  14   0  0  0
 231 328   0   5   0   0  1 52
 232 272   0   6   0   0  0  0
 233 328   0   5   0   0  1  8
 234 131   0   7  15   9  0  0
 235 916   0   0   0   0  0  0
 236 178  15   0   0   1  0 32
 237 100   0   0   0   2  0  0
 238 147   0   0   0   0  0  3
 239 100   0   3  14   0  0  0
 240 328   0   5   0   0 15 53
 241 272   0   6   0   0  0  0
 242 328   0   5   0   0 15  8
 243 131   0   7  15   9  0  0
 244 916   0   0   0   0  0  0
 245 178  16   0   0   1  0 32
 246 100   0   0   0   2  0  0
 247 147   0   0   0   0  0  3
 248 100   0   3  14   0  0  0
 249 328   0   5   0   0 16 54
 250 272   0   6   0   0  0  0
 251 328   0   5   0   0 16  8
 252 131   0   7  15   9  0  0
 253 916   0   0   0   0  0  0
 254 178  13   0   0   1  0 32
 255 100   0   0   0   2  0  0
 256 147   0   0   0   0  0  3
 257 100   0   3  14   0  0  0
 258 328   0   5   0   0 13 55
 259 272   0   6   0   0  0  0
 260 328   0   5   0   0 13  8
 261 131   0   7  15   9  0  0
 262 916   0   0   0   0  0  0
 263 178  17   0   0   1  0 32
 264 100   0   0   0   2  0  0
 265 147   0   0   0   0  0  3
 266 100   0   3  14   0  0  0
 267 328   0   5   0   0 17 56
 268 272   0   6   0   0  0  0
 269 328   0   5   0   0 17  8
 270 131   0   7  15   9  0  0
 271 916   0   0   0   0  0  0
 272 178  18   0   0   1  0 32
 273 100   0   0   0   2  0  0
 274 147   0   0   0   0  0  3
 275 100   0   3  16   0  0  0
 276 328   0   5   0   0  5 57
 277 272   0   6   0   0  0  0
 278 328   0   5   0   0  5  8
 279 131   0   7  17   9  0  0
 280 916   0   0   0   0  0  0
 281 178  19   0   0   1  0 32
 282 100   0   0   0   2  0  0
 283 147   0   0   0   0  0  3
 284 100   0   3  16   0  0  0
 285 328   0   5   0   0 18 58
 286 272   0   6   0   0  0  0
 287 328   0   5   0   0 18  8
 288 131   0   7  17   9  0  0
 289 916   0   0   0   0  0  0
 290 178  20   0   0   1  0 32
 291 100   0   0   0   2  0  0
 292 147   0   0   0   0  0  3
 293 100   0   3  16   0  0  0
 294 328   0   5   0   0 19 59
 295 272   0   6   0   0  0  0
 296 328   0   5   0   0 19  8
 297 131   0   7  17   9  0  0
 298 916   0   0   0   0  0  0
 299 178   9   0   0   1  0 32
 300 100   0   0   0   2  0  0
 301 147   0   0   0   0  0  3
 302 100   0   3  16   0  0  0
 303 328   0   5   0   0  9 60
 304 272   0   6   0   0  0  0
[RF]
1      51.2012 1 2 0 140 -5333.33 0
2      51.2012 1 2 0 140 -2666.67 2.04204
3      51.2012 1 2 0 140 0 6.12611
4      51.2012 1 2 0 140 2666.67 5.96903
5      51.2012 1 2 0 140 5333.33 1.5708
6      51.2012 1 2 0 140 -5333.33 5.49779
7      51.2012 1 2 0 140 -2666.67 5.18363
8      51.2012 1 2 0 140 0 0.628319
9      51.2012 1 2 0 140 2666.67 4.39823
10      51.2012 1 2 0 140 5333.33 3.92699
11      51.2012 1 2 0 140 -2666.67 2.82743
12      51.2012 1 2 0 140 0 2.19911
13      51.2012 1 2 0 140 2666.67 3.61283
14      51.2012 1 2 0 140 5333.33 0.785398
15      51.2012 1 2 0 140 -2666.67 1.25664
16      51.2012 1 2 0 140 0 4.55531
17      51.2012 1 2 0 140 5333.33 4.71239
18      51.2012 1 2 0 140 -5333.33 1.5708
19      51.2012 1 2 0 140 -2666.67 0.471239
20      51.2012 1 2 0 140 0 1.41372
21      51.2012 1 2 0 140 5333.33 3.14159
22      51.2012 1 2 0 140 -5333.33 3.92699
23      51.2012 1 2 0 140 0 5.34071
24      51.2012 1 2 0 140 5333.33 2.35619
25      51.2012 1 2 0 140 -5333.33 0.785398
26      51.2012 1 2 0 140 0 3.76991
27      51.2012 1 2 0 140 2666.67 2.04204
28      51.2012 1 2 0 140 -5333.33 4.71239
29      51.2012 1 2 0 140 0 2.98451
30      51.2012 1 2 0 140 2666.67 5.18363
31      51.2012 1 2 0 140 -5333.33 3.14159
32      51.2012 1 2 0 140 2666.67 2.82743
33      51.2012 1 2 0 140 -5333.33 2.35619
34      51.2012 1 2 0 140 2666.67 1.25664
35      51.2012 1 2 0 140 -2666.67 5.96903
36      51.2012 1 2 0 140 2666.67 0.471239
37      51.2012 1 2 0 140 -2666.67 4.39823
38      51.2012 1 2 0 140 -2666.67 3.61283
39      51.2012 1 2 0 140 5333.33 0
40      51.2012 1 2 0 140 5333.33 5.49779

# Format of trapezoid gradients:
# id amplitude rise flat fall delay
# ..      Hz/m   us   us   us    us
[TRAP]
 1       888889 140 1500 140   0
 2      -847545 140  720 140   0
 3       344681  60  880  60   0
 4       340426  60  880  60   0
 5      -200000  40 3200  40   0
 6       241791  40 2640  40   0
 7 -1.18519e+06 190  890 190   0
 8      -340426  60  880  60   0
 9  1.19048e+06 190  930 190   0
10       335106  60  880  60   0
11      -335106  60  880  60   0
12       329787  60  880  60   0
13      -329787  60  880  60   0
14       324468  60  880  60   0
15      -324468  60  880  60   0
16       315789  50  900  50   0
17      -315789  50  900  50   0
18       310526  50  900  50   0
19      -310526  50  900  50   0
20       305263  50  900  50   0
21      -305263  50  900  50   0
22       300000  50  900  50   0
23      -300000  50  900  50   0
24       294737  50  900  50   0
25      -294737  50  900  50   0
26       289474  50  900  50   0
27      -289474  50  900  50   0
28       284211  50  900  50   0
29      -284211  50  900  50   0
30       278947  50  900  50   0
31      -278947  50  900  50   0
32       273684  50  900  50   0
33      -273684  50  900  50   0
34       268421  50  900  50   0
35      -268421  50  900  50   0
36       263158  50  900  50   0
37      -263158  50  900  50   0
38       255208  40  920  40   0
39      -255208  40  920  40   0
40       250000  40  920  40   0
41      -250000  40  920  40   0
42       244792  40  920  40   0
43      -244792  40  920  40   0
44       239583  40  920  40   0
45      -239583  40  920  40   0
46       234375  40  920  40   0
47      -234375  40  920  40   0
48       229167  40  920  40   0
49      -229167  40  920  40   0
50       223958  40  920  40   0
51      -223958  40  920  40   0
52       218750  40  920  40   0
53      -218750  40  920  40   0
54       213542  40  920  40   0
55      -213542  40  920  40   0
56       208333  40  920  40   0
57      -208333  40  920  40   0
58       203125  40  920  40   0
59      -203125  40  920  40   0
60       197917  40  920  40   0
61      -197917  40  920  40   0
62       190722  30  940  30   0
63      -190722  30  940  30   0
64       185567  30  940  30   0
65      -185567  30  940  30   0
66       180412  30  940  30   0
67      -180412  30  940  30   0
68       175258  30  940  30   0
69      -175258  30  940  30   0
70       170103  30  940  30   0
71      -170103  30  940  30   0
72       164948  30  940  30   0
73      -164948  30  940  30   0
74       159794  30  940  30   0
75      -159794  30  940  30   0
76       154639  30  940  30   0
77      -154639  30  940  30   0
78       149485  30  940  30   0
79      -149485  30  940  30   0
80       144330  30  940  30   0
81      -144330  30  940  30   0
82       139175  30  940  30   0
83      -139175  30  940  30   0
84       134021  30  940  30   0
85      -134021  30  940  30   0
86       127551  20  960  20   0
87      -127551  20  960  20   0
88       122449  20  960  20   0
89      -122449  20  960  20   0
90       117347  20  960  20   0
91      -117347  20  960  20   0
92       112245  20  960  20   0
93      -112245  20  960  20   0
94       107143  20  960  20   0
95      -107143  20  960  20   0
96       102041  20  960  20   0
97      -102041  20  960  20   0
98      96938.8  20  960  20   0
99     -96938.8  20  960  20   0
100      91836.7  20  960  20   0
101     -91836.7  20  960  20   0
102      86734.7  20  960  20   0
103     -86734.7  20  960  20   0
104      81632.7  20  960  20   0
105     -81632.7  20  960  20   0
106      76530.6  20  960  20   0
107     -76530.6  20  960  20   0
108      71428.6  20  960  20   0
109     -71428.6  20  960  20   0
110      66326.5  20  960  20   0
111     -66326.5  20  960  20   0
112      60606.1  10  980  10   0
113     -60606.1  10  980  10   0
114      55555.6  10  980  10   0
115     -55555.6  10  980  10   0
116      50505.1  10  980  10   0
117     -50505.1  10  980  10   0
118      45454.5  10  980  10   0
119     -45454.5  10  980  10   0
120        40404  10  980  10   0
121       -40404  10  980  10   0
122      35353.5  10  980  10   0
123     -35353.5  10  980  10   0
124        30303  10  980  10   0
125       -30303  10  980  10   0
126      25252.5  10  980  10   0
127     -25252.5  10  980  10   0
128        20202  10  980  10   0
129       -20202  10  980  10   0
130      15151.5  10  980  10   0
131     -15151.5  10  980  10   0
132        10101  10  980  10   0
133       -10101  10  980  10   0
134      5050.51  10  980  10   0
135     -5050.51  10  980  10   0
136           -0  10  980  10   0
137            0  10  980  10   0

# Format of ADC events:
# id num dwell delay freq phase
# ..  ..    ns    us   Hz   rad
[ADC]
1 128 25000 40 0 0
2 128 25000 40 0 2.04204
3 128 25000 40 0 6.12611
4 128 25000 40 0 5.96903
5 128 25000 40 0 1.5708
6 128 25000 40 0 5.49779
7 128 25000 40 0 5.18363
8 128 25000 40 0 0.628319
9 128 25000 40 0 4.39823
10 128 25000 40 0 3.92699
11 128 25000 40 0 2.82743
12 128 25000 40 0 2.19911
13 128 25000 40 0 3.61283
14 128 25000 40 0 0.785398
15 128 25000 40 0 1.25664
16 128 25000 40 0 4.55531
17 128 25000 40 0 4.71239
18 128 25000 40 0 0.471239
19 128 25000 40 0 1.41372
20 128 25000 40 0 3.14159
21 128 25000 40 0 5.34071
22 128 25000 40 0 2.35619
23 128 25000 40 0 3.76991
24 128 25000 40 0 2.98451

# Format of extension lists:
# id type ref next_id
# next_id of 0 terminates the list
# Extension list is followed by extension specifications
[EXTENSIONS]
1 1 1 0
2 1 2 1
3 2 1 0
4 1 2 0
5 1 3 4
6 1 4 5
7 1 5 6
8 1 6 0
9 1 7 1
10 1 3 0
11 1 4 10
12 1 5 11
13 1 7 12
14 1 8 1
15 1 8 12
16 1 9 1
17 1 9 12
18 1 10 1
19 1 10 12
20 1 11 1
21 1 11 12
22 1 12 1
23 1 12 12
24 1 13 1
25 1 13 12
26 1 14 1
27 1 14 12
28 1 15 1
29 1 15 12
30 1 4 4
31 1 5 30
32 1 16 4
33 1 17 6
34 1 18 6
35 1 19 6
36 1 20 6
37 1 5 5
38 1 21 37
39 1 17 5
40 1 21 39
41 1 18 5
42 1 21 41
43 1 19 5
44 1 21 43
45 1 20 5
46 1 21 45
47 1 22 37
48 1 22 39
49 1 22 41
50 1 22 43
51 1 22 45
52 1 23 37
53 1 23 39
54 1 23 41
55 1 23 43
56 1 23 45
57 1 24 37
58 1 24 39
59 1 24 41
60 1 24 43
61 1 24 45
62 1 25 37
63 1 25 39
64 1 25 41
65 1 25 43
66 1 25 45
67 1 26 37
68 1 26 39
69 1 26 41
70 1 26 43
71 1 26 45
72 1 27 37
73 1 27 39
74 1 27 41
75 1 27 43
76 1 27 45
77 1 28 37
78 1 28 39
79 1 28 41
80 1 28 43
81 1 28 45
82 1 29 37
83 1 29 39
84 1 29 41
85 1 29 43
86 1 29 45
87 1 30 37
88 1 30 39
89 1 30 41
90 1 30 43
91 1 30 45
92 1 31 37
93 1 31 39
94 1 31 41
95 1 31 43
96 1 31 45
97 1 32 37
98 1 32 39
99 1 32 41
100 1 32 43
101 1 32 45
102 1 33 37
103 1 33 39
104 1 33 41
105 1 33 43
106 1 33 45
107 1 34 37
108 1 34 39
109 1 34 41
110 1 34 43
111 1 34 45
112 1 35 37
113 1 35 39
114 1 35 41
115 1 35 43
116 1 35 45
117 1 36 37
118 1 36 39
119 1 36 41
120 1 36 43
121 1 36 45
122 1 37 37
123 1 37 39
124 1 37 41
125 1 37 43
126 1 37 45
127 1 38 37
128 1 38 39
129 1 38 41
130 1 38 43
131 1 38 45
132 1 39 37
133 1 39 39
134 1 39 41
135 1 39 43
136 1 39 45
137 1 40 37
138 1 40 39
139 1 40 41
140 1 40 43
141 1 40 45
142 1 41 37
143 1 41 39
144 1 41 41
145 1 41 43
146 1 41 45
147 1 42 37
148 1 42 39
149 1 42 41
150 1 42 43
151 1 42 45
152 1 43 37
153 1 43 39
154 1 43 41
155 1 43 43
156 1 43 45
157 1 44 37
158 1 44 39
159 1 44 41
160 1 44 43
161 1 44 45
162 1 45 37
163 1 45 39
164 1 45 41
165 1 45 43
166 1 45 45
167 1 46 37
168 1 46 39
169 1 46 41
170 1 46 43
171 1 46 45
172 1 47 37
173 1 47 39
174 1 47 41
175 1 47 43
176 1 47 45
177 1 48 37
178 1 48 39
179 1 48 41
180 1 48 43
181 1 48 45
182 1 49 37
183 1 49 39
184 1 49 41
185 1 49 43
186 1 49 45
187 1 50 37
188 1 50 39
189 1 50 41
190 1 50 43
191 1 50 45
192 1 51 37
193 1 51 39
194 1 51 41
195 1 51 43
196 1 51 45
197 1 52 37
198 1 52 39
199 1 52 41
200 1 52 43
201 1 52 45
202 1 53 37
203 1 53 39
204 1 53 41
205 1 53 43
206 1 53 45
207 1 54 37
208 1 54 39
209 1 54 41
210 1 54 43
211 1 54 45
212 1 55 37
213 1 55 39
214 1 55 41
215 1 55 43
216 1 55 45
217 1 56 37
218 1 56 39
219 1 56 41
220 1 56 43
221 1 56 45
222 1 57 37
223 1 57 39
224 1 57 41
225 1 57 43
226 1 57 45
227 1 58 37
228 1 58 39
229 1 58 41
230 1 58 43
231 1 58 45
232 1 59 37
233 1 59 39
234 1 59 41
235 1 59 43
236 1 59 45
237 1 60 37
238 1 60 39
239 1 60 41
240 1 60 43
241 1 60 45
242 1 61 37
243 1 61 39
244 1 61 41
245 1 61 43
246 1 61 45
247 1 62 37
248 1 62 39
249 1 62 41
250 1 62 43
251 1 62 45
252 1 63 37
253 1 63 39
254 1 63 41
255 1 63 43
256 1 63 45
257 1 64 37
258 1 64 39
259 1 64 41
260 1 64 43
261 1 64 45
262 1 65 37
263 1 65 39
264 1 65 41
265 1 65 43
266 1 65 45
267 1 66 37
268 1 66 39
269 1 66 41
270 1 66 43
271 1 66 45
272 1 67 37
273 1 67 39
274 1 67 41
275 1 67 43
276 1 67 45
277 1 68 37
278 1 68 39
279 1 68 41
280 1 68 43
281 1 68 45
282 1 69 37
283 1 69 39
284 1 69 41
285 1 69 43
286 1 69 45
287 1 70 37
288 1 70 39
289 1 70 41
290 1 70 43
291 1 70 45
292 1 71 37
293 1 71 39
294 1 71 41
295 1 71 43
296 1 71 45
297 1 72 37
298 1 72 39
299 1 72 41
300 1 72 43
301 1 72 45
302 1 73 37
303 1 73 39
304 1 73 41
305 1 73 43
306 1 73 45
307 1 74 37
308 1 74 39
309 1 74 41
310 1 74 43
311 1 74 45
312 1 75 37
313 1 75 39
314 1 75 41
315 1 75 43
316 1 75 45
317 1 76 37
318 1 76 39
319 1 76 41
320 1 76 43
321 1 76 45
322 1 77 37
323 1 77 39
324 1 77 41
325 1 77 43
326 1 77 45
327 1 78 37
328 1 78 39
329 1 78 41
330 1 78 43
331 1 78 45
332 1 79 37
333 1 79 39
334 1 79 41
335 1 79 43
336 1 79 45
337 1 80 37
338 1 80 39
339 1 80 41
340 1 80 43
341 1 80 45
342 1 81 37
343 1 81 39
344 1 81 41
345 1 81 43
346 1 81 45
347 1 82 37
348 1 82 39
349 1 82 41
350 1 82 43
351 1 82 45
352 1 83 37
353 1 83 39
354 1 83 41
355 1 83 43
356 1 83 45
357 1 84 37
358 1 84 39
359 1 84 41
360 1 84 43
361 1 84 45
362 1 85 37
363 1 85 39
364 1 85 41
365 1 85 43
366 1 85 45
367 1 86 37
368 1 86 39
369 1 86 41
370 1 86 43
371 1 86 45
372 1 87 37
373 1 87 39
374 1 87 41
375 1 87 43
376 1 87 45
377 1 88 37
378 1 88 39
379 1 88 41
380 1 88 43
381 1 88 45
382 1 89 37
383 1 89 39
384 1 89 41
385 1 89 43
386 1 89 45
387 1 90 37
388 1 90 39
389 1 90 41
390 1 90 43
391 1 90 45
392 1 91 37
393 1 91 39
394 1 91 41
395 1 91 43
396 1 91 45
397 1 92 37
398 1 92 39
399 1 92 41
400 1 92 43
401 1 92 45
402 1 93 37
403 1 93 39
404 1 93 41
405 1 93 43
406 1 93 45
407 1 94 37
408 1 94 39
409 1 94 41
410 1 94 43
411 1 94 45
412 1 95 37
413 1 95 39
414 1 95 41
415 1 95 43
416 1 95 45
417 1 96 37
418 1 96 39
419 1 96 41
420 1 96 43
421 1 96 45
422 1 97 37
423 1 97 39
424 1 97 41
425 1 97 43
426 1 97 45
427 1 98 37
428 1 98 39
429 1 98 41
430 1 98 43
431 1 98 45
432 1 99 37
433 1 99 39
434 1 99 41
435 1 99 43
436 1 99 45
437 1 100 37
438 1 100 39
439 1 100 41
440 1 100 43
441 1 100 45
442 1 101 37
443 1 101 39
444 1 101 41
445 1 101 43
446 1 101 45
447 1 102 37
448 1 102 39
449 1 102 41
450 1 102 43
451 1 102 45
452 1 103 37
453 1 103 39
454 1 103 41
455 1 103 43
456 1 103 45
457 1 104 37
458 1 104 39
459 1 104 41
460 1 104 43
461 1 104 45
462 1 105 37
463 1 105 39
464 1 105 41
465 1 105 43
466 1 105 45
467 1 106 37
468 1 106 39
469 1 106 41
470 1 106 43
471 1 106 45
472 1 107 37
473 1 107 39
474 1 107 41
475 1 107 43
476 1 107 45
477 1 108 37
478 1 108 39
479 1 108 41
480 1 108 43
481 1 108 45
482 1 109 37
483 1 109 39
484 1 109 41
485 1 109 43
486 1 109 45
487 1 110 37
488 1 110 39
489 1 110 41
490 1 110 43
491 1 110 45
492 1 111 37
493 1 111 39
494 1 111 41
495 1 111 43
496 1 111 45
497 1 112 37
498 1 112 39
499 1 112 41
500 1 112 43
501 1 112 45
502 1 113 37
503 1 113 39
504 1 113 41
505 1 113 43
506 1 113 45
507 1 114 37
508 1 114 39
509 1 114 41
510 1 114 43
511 1 114 45
512 1 115 37
513 1 115 39
514 1 115 41
515 1 115 43
516 1 115 45
517 1 116 37
518 1 116 39
519 1 116 41
520 1 116 43
521 1 116 45
522 1 117 37
523 1 117 39
524 1 117 41
525 1 117 43
526 1 117 45
527 1 118 37
528 1 118 39
529 1 118 41
530 1 118 43
531 1 118 45
532 1 119 37
533 1 119 39
534 1 119 41
535 1 119 43
536 1 119 45
537 1 120 37
538 1 120 39
539 1 120 41
540 1 120 43
541 1 120 45
542 1 121 37
543 1 121 39
544 1 121 41
545 1 121 43
546 1 121 45
547 1 122 37
548 1 122 39
549 1 122 41
550 1 122 43
551 1 122 45
552 1 123 37
553 1 123 39
554 1 123 41
555 1 123 43
556 1 123 45
557 1 124 37
558 1 124 39
559 1 124 41
560 1 124 43
561 1 124 45
562 1 125 37
563 1 125 39
564 1 125 41
565 1 125 43
566 1 125 45
567 1 126 37
568 1 126 39
569 1 126 41
570 1 126 43
571 1 126 45
572 1 127 37
573 1 127 39
574 1 127 41
575 1 127 43
576 1 127 45
577 1 128 37
578 1 128 39
579 1 128 41
580 1 128 43
581 1 128 45
582 1 129 37
583 1 129 39
584 1 129 41
585 1 129 43
586 1 129 45
587 1 130 37
588 1 130 39
589 1 130 41
590 1 130 43
591 1 130 45
592 1 131 37
593 1 131 39
594 1 131 41
595 1 131 43
596 1 131 45
597 1 132 37
598 1 132 39
599 1 132 41
600 1 132 43
601 1 132 45
602 1 133 37
603 1 133 39
604 1 133 41
605 1 133 43
606 1 133 45
607 1 134 37
608 1 134 39
609 1 134 41
610 1 134 43
611 1 134 45
612 1 135 37
613 1 135 39
614 1 135 41
615 1 135 43
616 1 135 45
617 1 136 37
618 1 136 39
619 1 136 41
620 1 136 43
621 1 136 45
622 1 137 37
623 1 137 39
624 1 137 41
625 1 137 43
626 1 137 45
627 1 138 37
628 1 138 39
629 1 138 41
630 1 138 43
631 1 138 45
632 1 139 37
633 1 139 39
634 1 139 41
635 1 139 43
636 1 139 45
637 1 140 37
638 1 140 39
639 1 140 41
640 1 140 43
641 1 140 45
642 1 141 37
643 1 141 39
644 1 141 41
645 1 141 43
646 1 141 45
647 1 142 37
648 1 142 39
649 1 142 41
650 1 142 43
651 1 142 45
652 1 143 37
653 1 143 39
654 1 143 41
655 1 143 43
656 1 143 45
657 1 144 37
658 1 144 39
659 1 144 41
660 1 144 43
661 1 144 45
662 1 145 37
663 1 145 39
664 1 145 41
665 1 145 43
666 1 145 45
667 1 146 37
668 1 146 39
669 1 146 41
670 1 146 43
671 1 146 45
672 1 147 37
673 1 147 39
674 1 147 41
675 1 147 43
676 1 147 45

# Extension specification for digital output and input triggers:
# id type channel delay (us) duration (us)
extension TRIGGERS 2
1 1 3 0 10

# Extension specification for setting labels:
# id set labelstring
extension LABELSET 1
1 1 NAV
2 0 AVG
3 0 ECO
4 0 LIN
5 0 SLC
6 1 ECO
7 1 AVG
8 2 AVG
9 3 AVG
10 4 AVG
11 5 AVG
12 6 AVG
13 7 AVG
14 8 AVG
15 9 AVG
16 0 NAV
17 1 SLC
18 2 SLC
19 3 SLC
20 4 SLC
21 1 LIN
22 2 LIN
23 3 LIN
24 4 LIN
25 5 LIN
26 6 LIN
27 7 LIN
28 8 LIN
29 9 LIN
30 10 LIN
31 11 LIN
32 12 LIN
33 13 LIN
34 14 LIN
35 15 LIN
36 16 LIN
37 17 LIN
38 18 LIN
39 19 LIN
40 20 LIN
41 21 LIN
42 22 LIN
43 23 LIN
44 24 LIN
45 25 LIN
46 26 LIN
47 27 LIN
48 28 LIN
49 29 LIN
50 30 LIN
51 31 LIN
52 32 LIN
53 33 LIN
54 34 LIN
55 35 LIN
56 36 LIN
57 37 LIN
58 38 LIN
59 39 LIN
60 40 LIN
61 41 LIN
62 42 LIN
63 43 LIN
64 44 LIN
65 45 LIN
66 46 LIN
67 47 LIN
68 48 LIN
69 49 LIN
70 50 LIN
71 51 LIN
72 52 LIN
73 53 LIN
74 54 LIN
75 55 LIN
76 56 LIN
77 57 LIN
78 58 LIN
79 59 LIN
80 60 LIN
81 61 LIN
82 62 LIN
83 63 LIN
84 64 LIN
85 65 LIN
86 66 LIN
87 67 LIN
88 68 LIN
89 69 LIN
90 70 LIN
91 71 LIN
92 72 LIN
93 73 LIN
94 74 LIN
95 75 LIN
96 76 LIN
97 77 LIN
98 78 LIN
99 79 LIN
100 80 LIN
101 81 LIN
102 82 LIN
103 83 LIN
104 84 LIN
105 85 LIN
106 86 LIN
107 87 LIN
108 88 LIN
109 89 LIN
110 90 LIN
111 91 LIN
112 92 LIN
113 93 LIN
114 94 LIN
115 95 LIN
116 96 LIN
117 97 LIN
118 98 LIN
119 99 LIN
120 100 LIN
121 101 LIN
122 102 LIN
123 103 LIN
124 104 LIN
125 105 LIN
126 106 LIN
127 107 LIN
128 108 LIN
129 109 LIN
130 110 LIN
131 111 LIN
132 112 LIN
133 113 LIN
134 114 LIN
135 115 LIN
136 116 LIN
137 117 LIN
138 118 LIN
139 119 LIN
140 120 LIN
141 121 LIN
142 122 LIN
143 123 LIN
144 124 LIN
145 125 LIN
146 126 LIN
147 127 LIN

# Extension specification for setting labels:
# id set labelstring
extension LABELINC 3

# Sequence Shapes
[SHAPES]

shape_id 1
num_samples 1500
7.31570055e-10
1.97782602e-08
9.16836897e-08
2.51897167e-07
5.3603498e-07
9.79872225e-07
1.61933457e-06
2.49048995e-06
3.62954026e-06
5.07281287e-06
6.85675226e-06
9.01791142e-06
1.15929433e-05
1.46185923e-05
1.81316855e-05
2.21691237e-05
2.67678732e-05
3.19649567e-05
3.77974442e-05
4.43024446e-05
5.15170963e-05
5.94785584e-05
6.8224002e-05
7.77906004e-05
8.82155208e-05
9.95359146e-05
0.000111788908
0.000125011595
0.000139241024
0.000154514192
0.000170868036
0.000188339418
0.000206965123
0.000226781845
0.000247826179
0.000270134611
0.000293743511
0.000318689117
0.000345007536
0.000372734724
0.000401906484
0.000432558451
0.000464726088
0.000498444671
0.000533749283
0.000570674804
0.000609255901
0.000649527018
0.000691522367
0.000735275917
0.000780821387
0.000828192237
0.000877421652
0.000928542542
0.000981587525
0.00103658892
0.00109357874
0.00115258867
0.00121365009
0.00127679402
0.00134205114
0.00140945178
0.0014790259
0.0015508031
0.00162481256
0.0017010831
0.00177964313
0.00186052065
0.00194374321
0.00202933798
0.00211733165
0.00220775048
0.00230062027
0.00239596633
0.00249381354
0.00259418625
0.00269710834
0.00280260318
0.00291069363
0.00302140203
0.00313475019
0.00325075938
0.00336945031
0.00349084317
0.00361495755
0.00374181248
0.00387142641
0.0040038172
0.00413900211
0.0042769978
0.00441782031
0.00456148504
0.0047080068
0.00485739973
0.00500967732
0.00516485242
0.00532293721
0.00548394322
0.00564788126
0.00581476148
0.00598459335
0.00615738561
0.00633314631
0.00651188278
0.00669360162
0.00687830872
0.0070660092
0.00725670748
0.00745040719
0.00764711122
0.00784682169
0.00804953997
0.00825526661
0.00846400141
0.00867574338
0.00889049072
0.00910824083
0.0093289903
0.00955273492
0.00977946964
0.0100091886
0.0102418851
0.0104775516
0.0107161797
0.0109577602
0.011202283
0.0114497372
0.011700111
0.0119533917
0.0122095657
0.0124686187
0.0127305354
0.0129952995
0.013262894
0.0135333009
0.0138065014
0.0140824756
0.014361203
0.0146426618
0.0149268296
0.015213683
0.0155031977
0.0157953483
0.0160901087
0.0163874518
0.0166873494
0.0169897727
0.0172946917
0.0176020756
0.0179118924
0.0182241096
0.0185386933
0.018855609
0.019174821
0.0194962928
0.0198199869
0.0201458648
0.0204738872
0.0208040136
0.0211362028
0.0214704124
0.0218065993
0.0221447192
0.022484727
0.0228265765
0.0231702207
0.0235156115
0.0238627
0.0242114361
0.024561769
0.0249136469
0.0252670168
0.025621825
0.0259780167
0.0263355363
0.0266943271
0.0270543316
0.0274154911
0.0277777461
0.0281410364
0.0285053003
0.0288704758
0.0292364994
0.029603307
0.0299708334
0.0303390126
0.0307077777
0.0310770607
0.0314467927
0.0318169041
0.0321873241
0.0325579813
0.032928803
0.0332997161
0.033670646
0.0340415178
0.0344122554
0.0347827817
0.0351530191
0.0355228887
