# Pulseq sequence file
# Created by MATLAB mr toolbox

[VERSION]
major 1
minor 4
revision 0

[DEFINITIONS]
AdcRasterTime 1e-07 
BlockDurationRaster 1e-05 
CameraAcqDuration 0.07 
CameraAqDelay 0 
CameraInterleaveTR 0.4 
CameraNrDynamics 60 
CameraNrSyncDynamics 0 
GradientRasterTime 1e-05 
Name gtf 
RadiofrequencyRasterTime 1e-06 

# Format of blocks:
# NUM DUR RF  GX  GY  GZ  ADC  EXT
[BLOCKS]
  1   1   0   0   0   0  0  1
  2 99999   0   0   0   0  0  0
  3   1   0   0   0   0  0  1
  4 200   0   0   0   0  0  0
  5   2   0   1   0   0  0  0
  6 99797   0   0   0   0  0  0
  7   1   0   0   0   0  0  1
  8 200   0   0   0   0  0  0
  9   4   0   2   0   0  0  0
 10 99795   0   0   0   0  0  0
 11   1   0   0   0   0  0  1
 12 200   0   0   0   0  0  0
 13   6   0   3   0   0  0  0
 14 99793   0   0   0   0  0  0
 15   1   0   0   0   0  0  1
 16 200   0   0   0   0  0  0
 17   8   0   4   0   0  0  0
 18 99791   0   0   0   0  0  0
 19   1   0   0   0   0  0  1
 20 200   0   0   0   0  0  0
 21  10   0   5   0   0  0  0
 22 99789   0   0   0   0  0  0
 23   1   0   0   0   0  0  1
 24 200   0   0   0   0  0  0
 25  12   0   6   0   0  0  0
 26 99787   0   0   0   0  0  0
 27   1   0   0   0   0  0  1
 28 200   0   0   0   0  0  0
 29  14   0   7   0   0  0  0
 30 99785   0   0   0   0  0  0
 31   1   0   0   0   0  0  1
 32 200   0   0   0   0  0  0
 33  16   0   8   0   0  0  0
 34 99783   0   0   0   0  0  0
 35   1   0   0   0   0  0  1
 36 200   0   0   0   0  0  0
 37  18   0   9   0   0  0  0
 38 99781   0   0   0   0  0  0
 39   1   0   0   0   0  0  1
 40 200   0   0   0   0  0  0
 41  20   0  10   0   0  0  0
 42 99779   0   0   0   0  0  0
 43   1   0   0   0   0  0  1
 44 200   0   0   0   0  0  0
 45  22   0  11   0   0  0  0
 46 99777   0   0   0   0  0  0
 47   1   0   0   0   0  0  1
 48 200   0   0   0   0  0  0
 49  24   0  12   0   0  0  0
 50 99775   0   0   0   0  0  0
 51   1   0   0   0   0  0  1
 52 200   0   0   0   0  0  0
 53  26   0  13   0   0  0  0
 54 99773   0   0   0   0  0  0
 55   1   0   0   0   0  0  1
 56 200   0   0   0   0  0  0
 57  28   0  14   0   0  0  0
 58 99771   0   0   0   0  0  0
 59   1   0   0   0   0  0  1
 60 200   0   0   0   0  0  0
 61  30   0  15   0   0  0  0
 62 99769   0   0   0   0  0  0
 63   1   0   0   0   0  0  1
 64 200   0   0   0   0  0  0
 65  32   0  16   0   0  0  0
 66 99767   0   0   0   0  0  0
 67   1   0   0   0   0  0  1
 68 200   0   0   0   0  0  0
 69  34   0  17   0   0  0  0
 70 99765   0   0   0   0  0  0
 71   1   0   0   0   0  0  1
 72 200   0   0   0   0  0  0
 73  36   0  18   0   0  0  0
 74 99763   0   0   0   0  0  0
 75   1   0   0   0   0  0  1
 76 200   0   0   0   0  0  0
 77  38   0  19   0   0  0  0
 78 99761   0   0   0   0  0  0
 79   1   0   0   0   0  0  1
 80 99999   0   0   0   0  0  0
 81   1   0   0   0   0  0  1
 82 200   0   0   0   0  0  0
 83   2   0   0  20   0  0  0
 84 99797   0   0   0   0  0  0
 85   1   0   0   0   0  0  1
 86 200   0   0   0   0  0  0
 87   4   0   0  21   0  0  0
 88 99795   0   0   0   0  0  0
 89   1   0   0   0   0  0  1
 90 200   0   0   0   0  0  0
 91   6   0   0  22   0  0  0
 92 99793   0   0   0   0  0  0
 93   1   0   0   0   0  0  1
 94 200   0   0   0   0  0  0
 95   8   0   0  23   0  0  0
 96 99791   0   0   0   0  0  0
 97   1   0   0   0   0  0  1
 98 200   0   0   0   0  0  0
 99  10   0   0  24   0  0  0
100 99789   0   0   0   0  0  0
101   1   0   0   0   0  0  1
102 200   0   0   0   0  0  0
103  12   0   0  25   0  0  0
104 99787   0   0   0   0  0  0
105   1   0   0   0   0  0  1
106 200   0   0   0   0  0  0
107  14   0   0  26   0  0  0
108 99785   0   0   0   0  0  0
109   1   0   0   0   0  0  1
110 200   0   0   0   0  0  0
111  16   0   0  27   0  0  0
112 99783   0   0   0   0  0  0
113   1   0   0   0   0  0  1
114 200   0   0   0   0  0  0
115  18   0   0  28   0  0  0
116 99781   0   0   0   0  0  0
117   1   0   0   0   0  0  1
118 200   0   0   0   0  0  0
119  20   0   0  29   0  0  0
120 99779   0   0   0   0  0  0
121   1   0   0   0   0  0  1
122 200   0   0   0   0  0  0
123  22   0   0  30   0  0  0
124 99777   0   0   0   0  0  0
125   1   0   0   0   0  0  1
126 200   0   0   0   0  0  0
127  24   0   0  31   0  0  0
128 99775   0   0   0   0  0  0
129   1   0   0   0   0  0  1
130 200   0   0   0   0  0  0
131  26   0   0  32   0  0  0
132 99773   0   0   0   0  0  0
133   1   0   0   0   0  0  1
134 200   0   0   0   0  0  0
135  28   0   0  33   0  0  0
136 99771   0   0   0   0  0  0
137   1   0   0   0   0  0  1
138 200   0   0   0   0  0  0
139  30   0   0  34   0  0  0
140 99769   0   0   0   0  0  0
141   1   0   0   0   0  0  1
142 200   0   0   0   0  0  0
143  32   0   0  35   0  0  0
144 99767   0   0   0   0  0  0
145   1   0   0   0   0  0  1
146 200   0   0   0   0  0  0
147  34   0   0  36   0  0  0
148 99765   0   0   0   0  0  0
149   1   0   0   0   0  0  1
150 200   0   0   0   0  0  0
151  36   0   0  37   0  0  0
152 99763   0   0   0   0  0  0
153   1   0   0   0   0  0  1
154 200   0   0   0   0  0  0
155  38   0   0  38   0  0  0
156 99761   0   0   0   0  0  0
157   1   0   0   0   0  0  1
158 99999   0   0   0   0  0  0
159   1   0   0   0   0  0  1
160 200   0   0   0   0  0  0
161   2   0   0   0  20  0  0
162 99797   0   0   0   0  0  0
163   1   0   0   0   0  0  1
164 200   0   0   0   0  0  0
165   4   0   0   0  21  0  0
166 99795   0   0   0   0  0  0
167   1   0   0   0   0  0  1
168 200   0   0   0   0  0  0
169   6   0   0   0  22  0  0
170 99793   0   0   0   0  0  0
171   1   0   0   0   0  0  1
172 200   0   0   0   0  0  0
173   8   0   0   0  23  0  0
174 99791   0   0   0   0  0  0
175   1   0   0   0   0  0  1
176 200   0   0   0   0  0  0
177  10   0   0   0  24  0  0
178 99789   0   0   0   0  0  0
179   1   0   0   0   0  0  1
180 200   0   0   0   0  0  0
181  12   0   0   0  25  0  0
182 99787   0   0   0   0  0  0
183   1   0   0   0   0  0  1
184 200   0   0   0   0  0  0
185  14   0   0   0  26  0  0
186 99785   0   0   0   0  0  0
187   1   0   0   0   0  0  1
188 200   0   0   0   0  0  0
189  16   0   0   0  27  0  0
190 99783   0   0   0   0  0  0
191   1   0   0   0   0  0  1
192 200   0   0   0   0  0  0
193  18   0   0   0  28  0  0
194 99781   0   0   0   0  0  0
195   1   0   0   0   0  0  1
196 200   0   0   0   0  0  0
197  20   0   0   0  29  0  0
198 99779   0   0   0   0  0  0
199   1   0   0   0   0  0  1
200 200   0   0   0   0  0  0
201  22   0   0   0  30  0  0
202 99777   0   0   0   0  0  0
203   1   0   0   0   0  0  1
204 200   0   0   0   0  0  0
205  24   0   0   0  31  0  0
206 99775   0   0   0   0  0  0
207   1   0   0   0   0  0  1
208 200   0   0   0   0  0  0
209  26   0   0   0  32  0  0
210 99773   0   0   0   0  0  0
211   1   0   0   0   0  0  1
212 200   0   0   0   0  0  0
213  28   0   0   0  33  0  0
214 99771   0   0   0   0  0  0
215   1   0   0   0   0  0  1
216 200   0   0   0   0  0  0
217  30   0   0   0  34  0  0
218 99769   0   0   0   0  0  0
219   1   0   0   0   0  0  1
220 200   0   0   0   0  0  0
221  32   0   0   0  35  0  0
222 99767   0   0   0   0  0  0
223   1   0   0   0   0  0  1
224 200   0   0   0   0  0  0
225  34   0   0   0  36  0  0
226 99765   0   0   0   0  0  0
227   1   0   0   0   0  0  1
228 200   0   0   0   0  0  0
229  36   0   0   0  37  0  0
230 99763   0   0   0   0  0  0
231   1   0   0   0   0  0  1
232 200   0   0   0   0  0  0
233  38   0   0   0  38  0  0
234 99761   0   0   0   0  0  0
235   2   0  39   0   0  0  0

# Format of arbitrary gradients:
#   time_shape_id of 0 means default timing (stepping with grad_raster starting at 1/2 of grad_raster)
# id amplitude amp_shape_id time_shape_id delay
# ..      Hz/m       ..         ..          us
[GRADIENTS]
39            0 1 2 0

# Format of trapezoid gradients:
# id amplitude rise flat fall delay
# ..      Hz/m   us   us   us    us
[TRAP]
 1     -76636.8  10    0  10   0
 2      -153274  20    0  20   0
 3      -229910  30    0  30   0
 4      -306547  40    0  40   0
 5      -383184  50    0  50   0
 6      -459821  60    0  60   0
 7      -536458  70    0  70   0
 8      -613094  80    0  80   0
 9      -689731  90    0  90   0
10      -766368 100    0 100   0
11      -843005 110    0 110   0
12      -919642 120    0 120   0
13      -996278 130    0 130   0
14 -1.07292e+06 140    0 140   0
15 -1.14955e+06 150    0 150   0
16 -1.22619e+06 160    0 160   0
17 -1.30283e+06 170    0 170   0
18 -1.37946e+06 180    0 180   0
19  -1.4561e+06 190    0 190   0
20      76636.8  10    0  10   0
21       153274  20    0  20   0
22       229910  30    0  30   0
23       306547  40    0  40   0
24       383184  50    0  50   0
25       459821  60    0  60   0
26       536458  70    0  70   0
27       613094  80    0  80   0
28       689731  90    0  90   0
29       766368 100    0 100   0
30       843005 110    0 110   0
31       919642 120    0 120   0
32       996278 130    0 130   0
33  1.07292e+06 140    0 140   0
34  1.14955e+06 150    0 150   0
35  1.22619e+06 160    0 160   0
36  1.30283e+06 170    0 170   0
37  1.37946e+06 180    0 180   0
38   1.4561e+06 190    0 190   0

# Format of extension lists:
# id type ref next_id
# next_id of 0 terminates the list
# Extension list is followed by extension specifications
[EXTENSIONS]
1 1 1 0

# Extension specification for digital output and input triggers:
# id type channel delay (us) duration (us)
extension TRIGGERS 1
1 1 3 0 10

# Sequence Shapes
[SHAPES]

shape_id 1
num_samples 2
0
0

shape_id 2
num_samples 2
0.5
1.5


[SIGNATURE]
# This is the hash of the Pulseq file, calculated right before the [SIGNATURE] section was added
# It can be reproduced/verified with md5sum if the file trimmed to the position right above [SIGNATURE]
# The new line character preceding [SIGNATURE] BELONGS to the signature (and needs to be sripped away for recalculating/verification)
Type md5
Hash 5203b8f28893e33ab058193da5c67248
