# Pulseq sequence file
# Created by MATLAB mr toolbox

[VERSION]
major 1
minor 4
revision 0

[DEFINITIONS]
AdcRasterTime 1e-07 
AdcSampleTime 0.00014 
BlockDurationRaster 1e-05 
CameraAcqDuration 0.03418 
CameraAqDelay 0 
CameraInterleaveTR 0.198 
CameraNrDynamics 3186 
CameraNrSyncDynamics 0 
FOV 0.00526796783 0.00526796783 0.00526796783 
GradientRasterTime 1e-05 
Matrix 56 56 56 
Name gre3d 
RadiofrequencyRasterTime 1e-06 
TE 0.0133 0.02916 
TR 0.1 
TotalDuration 318.6 
TriggerToScannerAcqDelay 0.00926 
phaseDir_SCT 0 1 0 
readDir_SCT 1 0 0 
sliceDir_SCT 0 0 1 

# Format of blocks:
# NUM DUR RF  GX  GY  GZ  ADC  EXT
[BLOCKS]
    1  32   1   0   0   0  0  0
    2 120   0   0   0   0  0  1
    3 784   0   1   2   2  0  0
    4 828   0   3   0   0  1  5
    5 758   0   4   0   0  0  0
    6 828   0   3   0   0  1  9
    7 1568   0   5   6   6  0  0
    8 5082   0   0   0   0  0  0
    9  32   1   0   0   0  0  0
   10 120   0   0   0   0  0  1
   11 784   0   1   2   2  0  0
   12 828   0   3   0   0  1  5
   13 758   0   4   0   0  0  0
   14 828   0   3   0   0  1  9
   15 1568   0   5   6   6  0  0
   16 5082   0   0   0   0  0  0
   17  32   1   0   0   0  0  0
   18 120   0   0   0   0  0  1
   19 784   0   1   2   2  0  0
   20 828   0   3   0   0  1  5
   21 758   0   4   0   0  0  0
   22 828   0   3   0   0  1  9
   23 1568   0   5   6   6  0  0
   24 5082   0   0   0   0  0  0
   25  32   1   0   0   0  0  0
   26 120   0   0   0   0  0  1
   27 784   0   1   2   2  0  0
   28 828   0   3   0   0  1  5
   29 758   0   4   0   0  0  0
   30 828   0   3   0   0  1  9
   31 1568   0   5   6   6  0  0
   32 5082   0   0   0   0  0  0
   33  32   1   0   0   0  0  0
   34 120   0   0   0   0  0  1
   35 784   0   1   2   2  0  0
   36 828   0   3   0   0  1  5
   37 758   0   4   0   0  0  0
   38 828   0   3   0   0  1  9
   39 1568   0   5   6   6  0  0
   40 5082   0   0   0   0  0  0
   41  32   1   0   0   0  0  0
   42 120   0   0   0   0  0  1
   43 784   0   1   2   2  0  0
   44 828   0   3   0   0  1  5
   45 758   0   4   0   0  0  0
   46 828   0   3   0   0  1  9
   47 1568   0   5   6   6  0  0
   48 5082   0   0   0   0  0  0
   49  32   1   0   0   0  0  0
   50 120   0   0   0   0  0  1
   51 784   0   1   2   2  0  0
   52 828   0   3   0   0  1  5
   53 758   0   4   0   0  0  0
   54 828   0   3   0   0  1  9
   55 1568   0   5   6   6  0  0
   56 5082   0   0   0   0  0  0
   57  32   1   0   0   0  0  0
   58 120   0   0   0   0  0  1
   59 784   0   1   2   2  0  0
   60 828   0   3   0   0  1  5
   61 758   0   4   0   0  0  0
   62 828   0   3   0   0  1  9
   63 1568   0   5   6   6  0  0
   64 5082   0   0   0   0  0  0
   65  32   1   0   0   0  0  0
   66 120   0   0   0   0  0  1
   67 784   0   1   2   2  0  0
   68 828   0   3   0   0  1  5
   69 758   0   4   0   0  0  0
   70 828   0   3   0   0  1  9
   71 1568   0   5   6   6  0  0
   72 5082   0   0   0   0  0  0
   73  32   1   0   0   0  0  0
   74 120   0   0   0   0  0  1
   75 784   0   1   2   2  0  0
   76 828   0   3   0   0  1  5
   77 758   0   4   0   0  0  0
   78 828   0   3   0   0  1  9
   79 1568   0   5   6   6  0  0
   80 5082   0   0   0   0  0  0
   81  32   1   0   0   0  0  0
   82 120   0   0   0   0  0  1
   83 784   0   1   2   2  0  0
   84 828   0   3   0   0  1  5
   85 758   0   4   0   0  0  0
   86 828   0   3   0   0  1  9
   87 1568   0   5   6   6  0  0
   88 5082   0   0   0   0  0  0
   89  32   1   0   0   0  0  0
   90 120   0   0   0   0  0  1
   91 784   0   1   2   2  0  0
   92 828   0   3   0   0  1  5
   93 758   0   4   0   0  0  0
   94 828   0   3   0   0  1  9
   95 1568   0   5   6   6  0  0
   96 5082   0   0   0   0  0  0
   97  32   1   0   0   0  0  0
   98 120   0   0   0   0  0  1
   99 784   0   1   2   2  0  0
  100 828   0   3   0   0  1  5
  101 758   0   4   0   0  0  0
  102 828   0   3   0   0  1  9
  103 1568   0   5   6   6  0  0
  104 5082   0   0   0   0  0  0
  105  32   1   0   0   0  0  0
  106 120   0   0   0   0  0  1
  107 784   0   1   2   2  0  0
  108 828   0   3   0   0  1  5
  109 758   0   4   0   0  0  0
  110 828   0   3   0   0  1  9
  111 1568   0   5   6   6  0  0
  112 5082   0   0   0   0  0  0
  113  32   1   0   0   0  0  0
  114 120   0   0   0   0  0  1
  115 784   0   1   2   2  0  0
  116 828   0   3   0   0  1  5
  117 758   0   4   0   0  0  0
  118 828   0   3   0   0  1  9
  119 1568   0   5   6   6  0  0
  120 5082   0   0   0   0  0  0
  121  32   1   0   0   0  0  0
  122 120   0   0   0   0  0  1
  123 784   0   1   2   2  0  0
  124 828   0   3   0   0  1  5
  125 758   0   4   0   0  0  0
  126 828   0   3   0   0  1  9
  127 1568   0   5   6   6  0  0
  128 5082   0   0   0   0  0  0
  129  32   1   0   0   0  0  0
  130 120   0   0   0   0  0  1
  131 784   0   1   2   2  0  0
  132 828   0   3   0   0  1  5
  133 758   0   4   0   0  0  0
  134 828   0   3   0   0  1  9
  135 1568   0   5   6   6  0  0
  136 5082   0   0   0   0  0  0
  137  32   1   0   0   0  0  0
  138 120   0   0   0   0  0  1
  139 784   0   1   2   2  0  0
  140 828   0   3   0   0  1  5
  141 758   0   4   0   0  0  0
  142 828   0   3   0   0  1  9
  143 1568   0   5   6   6  0  0
  144 5082   0   0   0   0  0  0
  145  32   1   0   0   0  0  0
  146 120   0   0   0   0  0  1
  147 784   0   1   2   2  0  0
  148 828   0   3   0   0  1  5
  149 758   0   4   0   0  0  0
  150 828   0   3   0   0  1  9
  151 1568   0   5   6   6  0  0
  152 5082   0   0   0   0  0  0
  153  32   1   0   0   0  0  0
  154 120   0   0   0   0  0  1
  155 784   0   1   2   2  0  0
  156 828   0   3   0   0  1  5
  157 758   0   4   0   0  0  0
  158 828   0   3   0   0  1  9
  159 1568   0   5   6   6  0  0
  160 5082   0   0   0   0  0  0
  161  32   1   0   0   0  0  0
  162 120   0   0   0   0  0  1
  163 784   0   1   2   2  0  0
  164 828   0   3   0   0  1  5
  165 758   0   4   0   0  0  0
  166 828   0   3   0   0  1  9
  167 1568   0   5   6   6  0  0
  168 5082   0   0   0   0  0  0
  169  32   1   0   0   0  0  0
  170 120   0   0   0   0  0  1
  171 784   0   1   2   2  0  0
  172 828   0   3   0   0  1  5
  173 758   0   4   0   0  0  0
  174 828   0   3   0   0  1  9
  175 1568   0   5   6   6  0  0
  176 5082   0   0   0   0  0  0
  177  32   1   0   0   0  0  0
  178 120   0   0   0   0  0  1
  179 784   0   1   2   2  0  0
  180 828   0   3   0   0  1  5
  181 758   0   4   0   0  0  0
  182 828   0   3   0   0  1  9
  183 1568   0   5   6   6  0  0
  184 5082   0   0   0   0  0  0
  185  32   1   0   0   0  0  0
  186 120   0   0   0   0  0  1
  187 784   0   1   2   2  0  0
  188 828   0   3   0   0  1  5
  189 758   0   4   0   0  0  0
  190 828   0   3   0   0  1  9
  191 1568   0   5   6   6  0  0
  192 5082   0   0   0   0  0  0
  193  32   1   0   0   0  0  0
  194 120   0   0   0   0  0  1
  195 784   0   1   2   2  0  0
  196 828   0   3   0   0  1  5
  197 758   0   4   0   0  0  0
  198 828   0   3   0   0  1  9
  199 1568   0   5   6   6  0  0
  200 5082   0   0   0   0  0  0
  201  32   1   0   0   0  0  0
  202 120   0   0   0   0  0  1
  203 784   0   1   2   2  0  0
  204 828   0   3   0   0  1  5
  205 758   0   4   0   0  0  0
  206 828   0   3   0   0  1  9
  207 1568   0   5   6   6  0  0
  208 5082   0   0   0   0  0  0
  209  32   1   0   0   0  0  0
  210 120   0   0   0   0  0  1
  211 784   0   1   2   2  0  0
  212 828   0   3   0   0  1  5
  213 758   0   4   0   0  0  0
  214 828   0   3   0   0  1  9
  215 1568   0   5   6   6  0  0
  216 5082   0   0   0   0  0  0
  217  32   1   0   0   0  0  0
  218 120   0   0   0   0  0  1
  219 784   0   1   2   2  0  0
  220 828   0   3   0   0  1  5
  221 758   0   4   0   0  0  0
  222 828   0   3   0   0  1  9
  223 1568   0   5   6   6  0  0
  224 5082   0   0   0   0  0  0
  225  32   1   0   0   0  0  0
  226 120   0   0   0   0  0  1
  227 784   0   1   2   2  0  0
  228 828   0   3   0   0  1  5
  229 758   0   4   0   0  0  0
  230 828   0   3   0   0  1  9
  231 1568   0   5   6   6  0  0
  232 5082   0   0   0   0  0  0
  233  32   1   0   0   0  0  0
  234 120   0   0   0   0  0  1
  235 784   0   1   2   2  0  0
  236 828   0   3   0   0  1  5
  237 758   0   4   0   0  0  0
  238 828   0   3   0   0  1  9
  239 1568   0   5   6   6  0  0
  240 5082   0   0   0   0  0  0
  241  32   1   0   0   0  0  0
  242 120   0   0   0   0  0  1
  243 784   0   1   2   2  0  0
  244 828   0   3   0   0  1  5
  245 758   0   4   0   0  0  0
  246 828   0   3   0   0  1  9
  247 1568   0   5   6   6  0  0
  248 5082   0   0   0   0  0  0
  249  32   1   0   0   0  0  0
  250 120   0   0   0   0  0  1
  251 784   0   1   2   2  0  0
  252 828   0   3   0   0  1  5
  253 758   0   4   0   0  0  0
  254 828   0   3   0   0  1  9
  255 1568   0   5   6   6  0  0
  256 5082   0   0   0   0  0  0
  257  32   1   0   0   0  0  0
  258 120   0   0   0   0  0  1
  259 784   0   1   2   2  0  0
  260 828   0   3   0   0  1  5
  261 758   0   4   0   0  0  0
  262 828   0   3   0   0  1  9
  263 1568   0   5   6   6  0  0
  264 5082   0   0   0   0  0  0
  265  32   1   0   0   0  0  0
  266 120   0   0   0   0  0  1
  267 784   0   1   2   2  0  0
  268 828   0   3   0   0  1  5
  269 758   0   4   0   0  0  0
  270 828   0   3   0   0  1  9
  271 1568   0   5   6   6  0  0
  272 5082   0   0   0   0  0  0
  273  32   1   0   0   0  0  0
  274 120   0   0   0   0  0  1
  275 784   0   1   2   2  0  0
  276 828   0   3   0   0  1  5
  277 758   0   4   0   0  0  0
  278 828   0   3   0   0  1  9
  279 1568   0   5   6   6  0  0
  280 5082   0   0   0   0  0  0
  281  32   1   0   0   0  0  0
  282 120   0   0   0   0  0  1
  283 784   0   1   2   2  0  0
  284 828   0   3   0   0  1  5
  285 758   0   4   0   0  0  0
  286 828   0   3   0   0  1  9
  287 1568   0   5   6   6  0  0
  288 5082   0   0   0   0  0  0
  289  32   1   0   0   0  0  0
  290 120   0   0   0   0  0  1
[RF]
1      13.8889 1 2 3 100 0 3.45575
2      13.8889 1 2 3 100 0 1.88496
3      13.8889 1 2 3 100 0 3.76991
4      13.8889 1 2 3 100 0 0.942478
5      13.8889 1 2 3 100 0 2.51327
6      13.8889 1 2 3 100 0 5.34071
7      13.8889 1 2 3 100 0 0.314159
8      13.8889 1 2 3 100 0 5.65487
9      13.8889 1 2 3 100 0 2.19911
10      13.8889 1 2 3 100 0 5.02655
11      13.8889 1 2 3 100 0 4.08407
12      13.8889 1 2 3 100 0 0.628319

# Format of trapezoid gradients:
# id amplitude rise flat fall delay
# ..      Hz/m   us   us   us    us
[TRAP]
 1       707810 120 7600 120   0
 2            0  10 7820  10   0
 3  -1.3559e+06 220 7840 220   0
 4  1.48891e+06 240 7100 240   0
 5      -701900 110 15460 110   0
 6           -0  10 7820  10   0
 7       663042 110 7620 110   0
 8      -663042 110 7620 110   0
 9       637660 100 7640 100   0
10      -637660 100 7640 100   0
11       613135 100 7640 100   0
12      -613135 100 7640 100   0
13       588609 100 7640 100   0
14      -588609 100 7640 100   0
15       563356  90 7660  90   0
16      -563356  90 7660  90   0
17       538862  90 7660  90   0
18      -538862  90 7660  90   0
19       514369  90 7660  90   0
20      -514369  90 7660  90   0
21       489244  80 7680  80   0
22      -489244  80 7680  80   0
23       464781  80 7680  80   0
24      -464781  80 7680  80   0
25       439753  70 7700  70   0
26      -439753  70 7700  70   0
27       415322  70 7700  70   0
28      -415322  70 7700  70   0
29       390891  70 7700  70   0
30      -390891  70 7700  70   0
31       365989  60 7720  60   0
32      -365989  60 7720  60   0
33       341590  60 7720  60   0
34      -341590  60 7720  60   0
35       316784  50 7740  50   0
36      -316784  50 7740  50   0
37       292416  50 7740  50   0
38      -292416  50 7740  50   0
39       268048  50 7740  50   0
40      -268048  50 7740  50   0
41       243367  40 7760  40   0
42      -243367  40 7760  40   0
43       219031  40 7760  40   0
44      -219031  40 7760  40   0
45       194694  40 7760  40   0
46      -194694  40 7760  40   0
47       170139  30 7780  30   0
48      -170139  30 7780  30   0
49       145833  30 7780  30   0
50      -145833  30 7780  30   0
51       121372  20 7800  20   0
52      -121372  20 7800  20   0
53        97098  20 7800  20   0
54       -97098  20 7800  20   0
55      72823.5  20 7800  20   0
56     -72823.5  20 7800  20   0
57        48487  10 7820  10   0
58       -48487  10 7820  10   0
59      24243.5  10 7820  10   0
60     -24243.5  10 7820  10   0
61      -687599 110 7620 110   0
62       687599 110 7620 110   0

# Format of ADC events:
# id num dwell delay freq phase
# ..  ..    ns    us   Hz   rad
[ADC]
1 56 140000 220 0 3.45575
2 56 140000 220 0 1.88496
3 56 140000 220 0 3.76991
4 56 140000 220 0 0.942478
5 56 140000 220 0 2.51327
6 56 140000 220 0 5.34071
7 56 140000 220 0 0.314159
8 56 140000 220 0 5.65487
9 56 140000 220 0 2.19911
10 56 140000 220 0 5.02655
11 56 140000 220 0 4.08407
12 56 140000 220 0 0.628319

# Format of extension lists:
# id type ref next_id
# next_id of 0 terminates the list
# Extension list is followed by extension specifications
[EXTENSIONS]
1 1 1 0
2 2 1 0
3 2 2 2
4 2 3 3
5 2 4 4
6 2 2 0
7 2 3 6
8 2 4 7
9 2 5 8
10 2 4 2
11 2 6 10
12 2 7 11
13 2 4 0
14 2 5 13
15 2 6 14
16 2 7 15
17 2 7 10
18 2 8 17
19 2 7 14
20 2 8 19
21 2 9 17
22 2 9 19
23 2 10 17
24 2 10 19
25 2 11 17
26 2 11 19
27 2 12 17
28 2 12 19
29 2 13 17
30 2 13 19
31 2 14 17
32 2 14 19
33 2 15 17
34 2 15 19
35 2 16 17
36 2 16 19
37 2 17 17
38 2 17 19
39 2 18 17
40 2 18 19
41 2 19 17
42 2 19 19
43 2 20 17
44 2 20 19
45 2 21 17
46 2 21 19
47 2 22 17
48 2 22 19
49 2 23 17
50 2 23 19
51 2 24 17
52 2 24 19
53 2 25 17
54 2 25 19
55 2 26 17
56 2 26 19
57 2 27 17
58 2 27 19
59 2 28 17
60 2 28 19
61 2 29 17
62 2 29 19
63 2 30 17
64 2 30 19
65 2 31 17
66 2 31 19
67 2 32 17
68 2 32 19
69 2 33 17
70 2 33 19
71 2 4 3
72 2 7 71
73 2 4 6
74 2 5 73
75 2 7 74
76 2 34 17
77 2 34 19
78 2 35 17
79 2 35 19
80 2 36 17
81 2 36 19
82 2 37 17
83 2 37 19
84 2 38 17
85 2 38 19
86 2 39 17
87 2 39 19
88 2 40 17
89 2 40 19
90 2 41 17
91 2 41 19
92 2 42 17
93 2 42 19
94 2 43 17
95 2 43 19
96 2 44 17
97 2 44 19
98 2 45 17
99 2 45 19
100 2 46 17
101 2 46 19
102 2 47 17
103 2 47 19
104 2 48 17
105 2 48 19
106 2 49 17
107 2 49 19
108 2 50 17
109 2 50 19
110 2 51 17
111 2 51 19
112 2 52 17
113 2 52 19
114 2 53 17
115 2 53 19
116 2 54 17
117 2 54 19
118 2 55 17
119 2 55 19
120 2 56 17
121 2 56 19
122 2 57 17
123 2 57 19
124 2 58 17
125 2 58 19
126 2 59 17
127 2 59 19
128 2 60 17
129 2 60 19
130 2 61 17
131 2 61 19
132 2 62 11
133 2 62 15
134 2 8 10
135 2 62 134
136 2 8 14
137 2 62 136
138 2 9 10
139 2 62 138
140 2 9 14
141 2 62 140
142 2 10 10
143 2 62 142
144 2 10 14
145 2 62 144
146 2 11 10
147 2 62 146
148 2 11 14
149 2 62 148
150 2 12 10
151 2 62 150
152 2 12 14
153 2 62 152
154 2 13 10
155 2 62 154
156 2 13 14
157 2 62 156
158 2 14 10
159 2 62 158
160 2 14 14
161 2 62 160
162 2 15 10
163 2 62 162
164 2 15 14
165 2 62 164
166 2 16 10
167 2 62 166
168 2 16 14
169 2 62 168
170 2 17 10
171 2 62 170
172 2 17 14
173 2 62 172
174 2 18 10
175 2 62 174
176 2 18 14
177 2 62 176
178 2 19 10
179 2 62 178
180 2 19 14
181 2 62 180
182 2 20 10
183 2 62 182
184 2 20 14
185 2 62 184
186 2 21 10
187 2 62 186
188 2 21 14
189 2 62 188
190 2 22 10
191 2 62 190
192 2 22 14
193 2 62 192
194 2 23 10
195 2 62 194
196 2 23 14
197 2 62 196
198 2 24 10
199 2 62 198
200 2 24 14
201 2 62 200
202 2 25 10
203 2 62 202
204 2 25 14
205 2 62 204
206 2 26 10
207 2 62 206
208 2 26 14
209 2 62 208
210 2 27 10
211 2 62 210
212 2 27 14
213 2 62 212
214 2 28 10
215 2 62 214
216 2 28 14
217 2 62 216
218 2 29 10
219 2 62 218
220 2 29 14
221 2 62 220
222 2 30 10
223 2 62 222
224 2 30 14
225 2 62 224
226 2 31 10
227 2 62 226
228 2 31 14
229 2 62 228
230 2 32 10
231 2 62 230
232 2 32 14
233 2 62 232
234 2 33 10
235 2 62 234
236 2 33 14
237 2 62 236
238 2 62 71
239 2 62 74
240 2 34 10
241 2 62 240
242 2 34 14
243 2 62 242
244 2 35 10
245 2 62 244
246 2 35 14
247 2 62 246
248 2 36 10
249 2 62 248
250 2 36 14
251 2 62 250
252 2 37 10
253 2 62 252
254 2 37 14
255 2 62 254
256 2 38 10
257 2 62 256
258 2 38 14
259 2 62 258
260 2 39 10
261 2 62 260
262 2 39 14
263 2 62 262
264 2 40 10
265 2 62 264
266 2 40 14
267 2 62 266
268 2 41 10
269 2 62 268
270 2 41 14
271 2 62 270
272 2 42 10
273 2 62 272
274 2 42 14
275 2 62 274
276 2 43 10
277 2 62 276
278 2 43 14
279 2 62 278
280 2 44 10
281 2 62 280
282 2 44 14
283 2 62 282
284 2 45 10
285 2 62 284
286 2 45 14
287 2 62 286
288 2 46 10
289 2 62 288
290 2 46 14
291 2 62 290
292 2 47 10
293 2 62 292
294 2 47 14
295 2 62 294
296 2 48 10
297 2 62 296
298 2 48 14
299 2 62 298
300 2 49 10
301 2 62 300
302 2 49 14
303 2 62 302
304 2 50 10
305 2 62 304
306 2 50 14
307 2 62 306
308 2 51 10
309 2 62 308
310 2 51 14
311 2 62 310
312 2 52 10
313 2 62 312
314 2 52 14
315 2 62 314
316 2 53 10
317 2 62 316
318 2 53 14
319 2 62 318
320 2 54 10
321 2 62 320
322 2 54 14
323 2 62 322
324 2 55 10
325 2 62 324
326 2 55 14
327 2 62 326
328 2 56 10
329 2 62 328
330 2 56 14
331 2 62 330
332 2 57 10
333 2 62 332
334 2 57 14
335 2 62 334
336 2 58 10
337 2 62 336
338 2 58 14
339 2 62 338
340 2 59 10
341 2 62 340
342 2 59 14
343 2 62 342
344 2 60 10
345 2 62 344
346 2 60 14
347 2 62 346
348 2 61 10
349 2 62 348
350 2 61 14
351 2 62 350
352 2 63 11
353 2 63 15
354 2 63 134
355 2 63 136
356 2 63 138
357 2 63 140
358 2 63 142
359 2 63 144
360 2 63 146
361 2 63 148
362 2 63 150
363 2 63 152
364 2 63 154
365 2 63 156
366 2 63 158
367 2 63 160
368 2 63 162
369 2 63 164
370 2 63 166
371 2 63 168
372 2 63 170
373 2 63 172
374 2 63 174
375 2 63 176
376 2 63 178
377 2 63 180
378 2 63 182
379 2 63 184
380 2 63 186
381 2 63 188
382 2 63 190
383 2 63 192
384 2 63 194
385 2 63 196
386 2 63 198
387 2 63 200
388 2 63 202
389 2 63 204
390 2 63 206
391 2 63 208
392 2 63 210
393 2 63 212
394 2 63 214
395 2 63 216
396 2 63 218
397 2 63 220
398 2 63 222
399 2 63 224
400 2 63 226
401 2 63 228
402 2 63 230
403 2 63 232
404 2 63 234
405 2 63 236
406 2 63 71
407 2 63 74
408 2 63 240
409 2 63 242
410 2 63 244
411 2 63 246
412 2 63 248
413 2 63 250
414 2 63 252
415 2 63 254
416 2 63 256
417 2 63 258
418 2 63 260
419 2 63 262
420 2 63 264
421 2 63 266
422 2 63 268
423 2 63 270
424 2 63 272
425 2 63 274
426 2 63 276
427 2 63 278
428 2 63 280
429 2 63 282
430 2 63 284
431 2 63 286
432 2 63 288
433 2 63 290
434 2 63 292
435 2 63 294
436 2 63 296
437 2 63 298
438 2 63 300
439 2 63 302
440 2 63 304
441 2 63 306
442 2 63 308
443 2 63 310
444 2 63 312
445 2 63 314
446 2 63 316
447 2 63 318
448 2 63 320
449 2 63 322
450 2 63 324
451 2 63 326
452 2 63 328
453 2 63 330
454 2 63 332
455 2 63 334
456 2 63 336
457 2 63 338
458 2 63 340
459 2 63 342
460 2 63 344
461 2 63 346
462 2 63 348
463 2 63 350
464 2 64 11
465 2 64 15
466 2 64 134
467 2 64 136
468 2 64 138
469 2 64 140
470 2 64 142
471 2 64 144
472 2 64 146
473 2 64 148
474 2 64 150
475 2 64 152
476 2 64 154
477 2 64 156
478 2 64 158
479 2 64 160
480 2 64 162
481 2 64 164
482 2 64 166
483 2 64 168
484 2 64 170
485 2 64 172
486 2 64 174
487 2 64 176
488 2 64 178
489 2 64 180
490 2 64 182
491 2 64 184
492 2 64 186
493 2 64 188
494 2 64 190
495 2 64 192
496 2 64 194
497 2 64 196
498 2 64 198
499 2 64 200
500 2 64 202
501 2 64 204
502 2 64 206
503 2 64 208
504 2 64 210
505 2 64 212
506 2 64 214
507 2 64 216
508 2 64 218
509 2 64 220
510 2 64 222
511 2 64 224
512 2 64 226
513 2 64 228
514 2 64 230
515 2 64 232
516 2 64 234
517 2 64 236
518 2 64 71
519 2 64 74
520 2 64 240
521 2 64 242
522 2 64 244
523 2 64 246
524 2 64 248
525 2 64 250
526 2 64 252
527 2 64 254
528 2 64 256
529 2 64 258
530 2 64 260
531 2 64 262
532 2 64 264
533 2 64 266
534 2 64 268
535 2 64 270
536 2 64 272
537 2 64 274
538 2 64 276
539 2 64 278
540 2 64 280
541 2 64 282
542 2 64 284
543 2 64 286
544 2 64 288
545 2 64 290
546 2 64 292
547 2 64 294
548 2 64 296
549 2 64 298
550 2 64 300
551 2 64 302
552 2 64 304
553 2 64 306
554 2 64 308
555 2 64 310
556 2 64 312
557 2 64 314
558 2 64 316
559 2 64 318
560 2 64 320
561 2 64 322
562 2 64 324
563 2 64 326
564 2 64 328
565 2 64 330
566 2 64 332
567 2 64 334
568 2 64 336
569 2 64 338
570 2 64 340
571 2 64 342
572 2 64 344
573 2 64 346
574 2 64 348
575 2 64 350
576 2 65 11
577 2 65 15
578 2 65 134
579 2 65 136
580 2 65 138
581 2 65 140
582 2 65 142
583 2 65 144
584 2 65 146
585 2 65 148
586 2 65 150
587 2 65 152
588 2 65 154
589 2 65 156
590 2 65 158
591 2 65 160
592 2 65 162
593 2 65 164
594 2 65 166
595 2 65 168
596 2 65 170
597 2 65 172
598 2 65 174
599 2 65 176
600 2 65 178
601 2 65 180
602 2 65 182
603 2 65 184
604 2 65 186
605 2 65 188
606 2 65 190
607 2 65 192
608 2 65 194
609 2 65 196
610 2 65 198
611 2 65 200
612 2 65 202
613 2 65 204
614 2 65 206
615 2 65 208
616 2 65 210
617 2 65 212
618 2 65 214
619 2 65 216
620 2 65 218
621 2 65 220
622 2 65 222
623 2 65 224
624 2 65 226
625 2 65 228
626 2 65 230
627 2 65 232
628 2 65 234
629 2 65 236
630 2 65 71
631 2 65 74
632 2 65 240
633 2 65 242
634 2 65 244
635 2 65 246
636 2 65 248
637 2 65 250
638 2 65 252
639 2 65 254
640 2 65 256
641 2 65 258
642 2 65 260
643 2 65 262
644 2 65 264
645 2 65 266
646 2 65 268
647 2 65 270
648 2 65 272
649 2 65 274
650 2 65 276
651 2 65 278
652 2 65 280
653 2 65 282
654 2 65 284
655 2 65 286
656 2 65 288
657 2 65 290
658 2 65 292
659 2 65 294
660 2 65 296
661 2 65 298
662 2 65 300
663 2 65 302
664 2 65 304
665 2 65 306
666 2 65 308
667 2 65 310
668 2 65 312
669 2 65 314
670 2 65 316
671 2 65 318
672 2 65 320
673 2 65 322
674 2 65 324
675 2 65 326
676 2 65 328
677 2 65 330
678 2 65 332
679 2 65 334
680 2 65 336
681 2 65 338
682 2 65 340
683 2 65 342
684 2 65 344
685 2 65 346
686 2 65 348
687 2 65 350
688 2 66 11
689 2 66 15
690 2 66 134
691 2 66 136
692 2 66 138
693 2 66 140
694 2 66 142
695 2 66 144
696 2 66 146
697 2 66 148
698 2 66 150
699 2 66 152
700 2 66 154
701 2 66 156
702 2 66 158
703 2 66 160
704 2 66 162
705 2 66 164
706 2 66 166
707 2 66 168
708 2 66 170
709 2 66 172
710 2 66 174
711 2 66 176
712 2 66 178
713 2 66 180
714 2 66 182
715 2 66 184
716 2 66 186
717 2 66 188
718 2 66 190
719 2 66 192
720 2 66 194
721 2 66 196
722 2 66 198
723 2 66 200
724 2 66 202
725 2 66 204
726 2 66 206
727 2 66 208
728 2 66 210
729 2 66 212
730 2 66 214
731 2 66 216
732 2 66 218
733 2 66 220
734 2 66 222
735 2 66 224
736 2 66 226
737 2 66 228
738 2 66 230
739 2 66 232
740 2 66 234
741 2 66 236
742 2 66 71
743 2 66 74
744 2 66 240
745 2 66 242
746 2 66 244
747 2 66 246
748 2 66 248
749 2 66 250
750 2 66 252
751 2 66 254
752 2 66 256
753 2 66 258
754 2 66 260
755 2 66 262
756 2 66 264
757 2 66 266
758 2 66 268
759 2 66 270
760 2 66 272
761 2 66 274
762 2 66 276
763 2 66 278
764 2 66 280
765 2 66 282
766 2 66 284
767 2 66 286
768 2 66 288
769 2 66 290
770 2 66 292
771 2 66 294
772 2 66 296
773 2 66 298
774 2 66 300
775 2 66 302
776 2 66 304
777 2 66 306
778 2 66 308
779 2 66 310
780 2 66 312
781 2 66 314
782 2 66 316
783 2 66 318
784 2 66 320
785 2 66 322
786 2 66 324
787 2 66 326
788 2 66 328
789 2 66 330
790 2 66 332
791 2 66 334
792 2 66 336
793 2 66 338
794 2 66 340
795 2 66 342
796 2 66 344
797 2 66 346
798 2 66 348
799 2 66 350
800 2 67 11
801 2 67 15
802 2 67 134
803 2 67 136
804 2 67 138
805 2 67 140
806 2 67 142
807 2 67 144
808 2 67 146
809 2 67 148
810 2 67 150
811 2 67 152
812 2 67 154
813 2 67 156
814 2 67 158
815 2 67 160
816 2 67 162
817 2 67 164
818 2 67 166
819 2 67 168
820 2 67 170
821 2 67 172
822 2 67 174
823 2 67 176
824 2 67 178
825 2 67 180
826 2 67 182
827 2 67 184
828 2 67 186
829 2 67 188
830 2 67 190
831 2 67 192
832 2 67 194
833 2 67 196
834 2 67 198
835 2 67 200
836 2 67 202
837 2 67 204
838 2 67 206
839 2 67 208
840 2 67 210
841 2 67 212
842 2 67 214
843 2 67 216
844 2 67 218
845 2 67 220
846 2 67 222
847 2 67 224
848 2 67 226
849 2 67 228
850 2 67 230
851 2 67 232
852 2 67 234
853 2 67 236
854 2 67 71
855 2 67 74
856 2 67 240
857 2 67 242
858 2 67 244
859 2 67 246
860 2 67 248
861 2 67 250
862 2 67 252
863 2 67 254
864 2 67 256
865 2 67 258
866 2 67 260
867 2 67 262
868 2 67 264
869 2 67 266
870 2 67 268
871 2 67 270
872 2 67 272
873 2 67 274
874 2 67 276
875 2 67 278
876 2 67 280
877 2 67 282
878 2 67 284
879 2 67 286
880 2 67 288
881 2 67 290
882 2 67 292
883 2 67 294
884 2 67 296
885 2 67 298
886 2 67 300
887 2 67 302
888 2 67 304
889 2 67 306
890 2 67 308
891 2 67 310
892 2 67 312
893 2 67 314
894 2 67 316
895 2 67 318
896 2 67 320
897 2 67 322
898 2 67 324
899 2 67 326
900 2 67 328
901 2 67 330
902 2 67 332
903 2 67 334
904 2 67 336
905 2 67 338
906 2 67 340
907 2 67 342
908 2 67 344
909 2 67 346
910 2 67 348
911 2 67 350
912 2 68 11
913 2 68 15
914 2 68 134
915 2 68 136
916 2 68 138
917 2 68 140
918 2 68 142
919 2 68 144
920 2 68 146
921 2 68 148
922 2 68 150
923 2 68 152
924 2 68 154
925 2 68 156
926 2 68 158
927 2 68 160
928 2 68 162
929 2 68 164
930 2 68 166
931 2 68 168
932 2 68 170
933 2 68 172
934 2 68 174
935 2 68 176
936 2 68 178
937 2 68 180
938 2 68 182
939 2 68 184
940 2 68 186
941 2 68 188
942 2 68 190
943 2 68 192
944 2 68 194
945 2 68 196
946 2 68 198
947 2 68 200
948 2 68 202
949 2 68 204
950 2 68 206
951 2 68 208
952 2 68 210
953 2 68 212
954 2 68 214
955 2 68 216
956 2 68 218
957 2 68 220
958 2 68 222
959 2 68 224
960 2 68 226
961 2 68 228
962 2 68 230
963 2 68 232
964 2 68 234
965 2 68 236
966 2 68 71
967 2 68 74
968 2 68 240
969 2 68 242
970 2 68 244
971 2 68 246
972 2 68 248
973 2 68 250
974 2 68 252
975 2 68 254
976 2 68 256
977 2 68 258
978 2 68 260
979 2 68 262
980 2 68 264
981 2 68 266
982 2 68 268
983 2 68 270
984 2 68 272
985 2 68 274
986 2 68 276
987 2 68 278
988 2 68 280
989 2 68 282
990 2 68 284
991 2 68 286
992 2 68 288
993 2 68 290
994 2 68 292
995 2 68 294
996 2 68 296
997 2 68 298
998 2 68 300
999 2 68 302
1000 2 68 304
1001 2 68 306
1002 2 68 308
1003 2 68 310
1004 2 68 312
1005 2 68 314
1006 2 68 316
1007 2 68 318
1008 2 68 320
1009 2 68 322
1010 2 68 324
1011 2 68 326
1012 2 68 328
1013 2 68 330
1014 2 68 332
1015 2 68 334
1016 2 68 336
1017 2 68 338
1018 2 68 340
1019 2 68 342
1020 2 68 344
1021 2 68 346
1022 2 68 348
1023 2 68 350
1024 2 69 11
1025 2 69 15
1026 2 69 134
1027 2 69 136
1028 2 69 138
1029 2 69 140
1030 2 69 142
1031 2 69 144
1032 2 69 146
1033 2 69 148
1034 2 69 150
1035 2 69 152
1036 2 69 154
1037 2 69 156
1038 2 69 158
1039 2 69 160
1040 2 69 162
1041 2 69 164
1042 2 69 166
1043 2 69 168
1044 2 69 170
1045 2 69 172
1046 2 69 174
1047 2 69 176
1048 2 69 178
1049 2 69 180
1050 2 69 182
1051 2 69 184
1052 2 69 186
1053 2 69 188
1054 2 69 190
1055 2 69 192
1056 2 69 194
1057 2 69 196
1058 2 69 198
1059 2 69 200
1060 2 69 202
1061 2 69 204
1062 2 69 206
1063 2 69 208
1064 2 69 210
1065 2 69 212
1066 2 69 214
1067 2 69 216
1068 2 69 218
1069 2 69 220
1070 2 69 222
1071 2 69 224
1072 2 69 226
1073 2 69 228
1074 2 69 230
1075 2 69 232
1076 2 69 234
1077 2 69 236
1078 2 69 71
1079 2 69 74
1080 2 69 240
1081 2 69 242
1082 2 69 244
1083 2 69 246
1084 2 69 248
1085 2 69 250
1086 2 69 252
1087 2 69 254
1088 2 69 256
1089 2 69 258
1090 2 69 260
1091 2 69 262
1092 2 69 264
1093 2 69 266
1094 2 69 268
1095 2 69 270
1096 2 69 272
1097 2 69 274
1098 2 69 276
1099 2 69 278
1100 2 69 280
1101 2 69 282
1102 2 69 284
1103 2 69 286
1104 2 69 288
1105 2 69 290
1106 2 69 292
1107 2 69 294
1108 2 69 296
1109 2 69 298
1110 2 69 300
1111 2 69 302
1112 2 69 304
1113 2 69 306
1114 2 69 308
1115 2 69 310
1116 2 69 312
1117 2 69 314
1118 2 69 316
1119 2 69 318
1120 2 69 320
1121 2 69 322
1122 2 69 324
1123 2 69 326
1124 2 69 328
1125 2 69 330
1126 2 69 332
1127 2 69 334
1128 2 69 336
1129 2 69 338
1130 2 69 340
1131 2 69 342
1132 2 69 344
1133 2 69 346
1134 2 69 348
1135 2 69 350
1136 2 70 11
1137 2 70 15
1138 2 70 134
1139 2 70 136
1140 2 70 138
1141 2 70 140
1142 2 70 142
1143 2 70 144
1144 2 70 146
1145 2 70 148
1146 2 70 150
1147 2 70 152
1148 2 70 154
1149 2 70 156
1150 2 70 158
1151 2 70 160
1152 2 70 162
1153 2 70 164
1154 2 70 166
1155 2 70 168
1156 2 70 170
1157 2 70 172
1158 2 70 174
1159 2 70 176
1160 2 70 178
1161 2 70 180
1162 2 70 182
1163 2 70 184
1164 2 70 186
1165 2 70 188
1166 2 70 190
1167 2 70 192
1168 2 70 194
1169 2 70 196
1170 2 70 198
1171 2 70 200
1172 2 70 202
1173 2 70 204
1174 2 70 206
1175 2 70 208
1176 2 70 210
1177 2 70 212
1178 2 70 214
1179 2 70 216
1180 2 70 218
1181 2 70 220
1182 2 70 222
1183 2 70 224
1184 2 70 226
1185 2 70 228
1186 2 70 230
1187 2 70 232
1188 2 70 234
1189 2 70 236
1190 2 70 71
1191 2 70 74
1192 2 70 240
1193 2 70 242
1194 2 70 244
1195 2 70 246
1196 2 70 248
1197 2 70 250
1198 2 70 252
1199 2 70 254
1200 2 70 256
1201 2 70 258
1202 2 70 260
1203 2 70 262
1204 2 70 264
1205 2 70 266
1206 2 70 268
1207 2 70 270
1208 2 70 272
1209 2 70 274
1210 2 70 276
1211 2 70 278
1212 2 70 280
1213 2 70 282
1214 2 70 284
1215 2 70 286
1216 2 70 288
1217 2 70 290
1218 2 70 292
1219 2 70 294
1220 2 70 296
1221 2 70 298
1222 2 70 300
1223 2 70 302
1224 2 70 304
1225 2 70 306
1226 2 70 308
1227 2 70 310
1228 2 70 312
1229 2 70 314
1230 2 70 316
1231 2 70 318
1232 2 70 320
1233 2 70 322
1234 2 70 324
1235 2 70 326
1236 2 70 328
1237 2 70 330
1238 2 70 332
1239 2 70 334
1240 2 70 336
1241 2 70 338
1242 2 70 340
1243 2 70 342
1244 2 70 344
1245 2 70 346
1246 2 70 348
1247 2 70 350
1248 2 71 11
1249 2 71 15
1250 2 71 134
1251 2 71 136
1252 2 71 138
1253 2 71 140
1254 2 71 142
1255 2 71 144
1256 2 71 146
1257 2 71 148
1258 2 71 150
1259 2 71 152
1260 2 71 154
1261 2 71 156
1262 2 71 158
1263 2 71 160
1264 2 71 162
1265 2 71 164
1266 2 71 166
1267 2 71 168
1268 2 71 170
1269 2 71 172
1270 2 71 174
1271 2 71 176
1272 2 71 178
1273 2 71 180
1274 2 71 182
1275 2 71 184
1276 2 71 186
1277 2 71 188
1278 2 71 190
1279 2 71 192
1280 2 71 194
1281 2 71 196
1282 2 71 198
1283 2 71 200
1284 2 71 202
1285 2 71 204
1286 2 71 206
1287 2 71 208
1288 2 71 210
1289 2 71 212
1290 2 71 214
1291 2 71 216
1292 2 71 218
1293 2 71 220
1294 2 71 222
1295 2 71 224
1296 2 71 226
1297 2 71 228
1298 2 71 230
1299 2 71 232
1300 2 71 234
1301 2 71 236
1302 2 71 71
1303 2 71 74
1304 2 71 240
