# Pulseq sequence file
# Created by MATLAB mr toolbox

[VERSION]
major 1
minor 4
revision 1

[DEFINITIONS]
AdcRasterTime 1e-07 
BlockDurationRaster 1e-05 
CameraAcqDuration 0.07 
CameraAqDelay 0 
CameraInterleaveTR 0.4 
CameraNrDynamics 3 
CameraNrSyncDynamics 0 
GradientRasterTime 1e-05 
Name sweep 
RadiofrequencyRasterTime 1e-06 

# Format of blocks:
# NUM DUR RF  GX  GY  GZ  ADC  EXT
[BLOCKS]
 1 101   0   0   0   0  0  1
 2 200   0   0   0   0  0  0
 3 5004   0   1   0   0  0  0
 4 94695   0   0   0   0  0  0
 5 101   0   0   0   0  0  1
 6 200   0   0   0   0  0  0
 7 5004   0   0   1   0  0  0
 8 94695   0   0   0   0  0  0
 9 101   0   0   0   0  0  1
10 200   0   0   0   0  0  0
11 5004   0   0   0   1  0  0
12 94695   0   0   0   0  0  0
13   2   0   2   0   0  0  0

# Format of arbitrary gradients:
#   time_shape_id of 0 means default timing (stepping with grad_raster starting at 1/2 of grad_raster)
# id amplitude amp_shape_id time_shape_id delay
# ..      Hz/m       ..         ..          us
[GRADIENTS]
1  1.22751e+06 1 0 0
2            0 2 3 0

# Format of extension lists:
# id type ref next_id
# next_id of 0 terminates the list
# Extension list is followed by extension specifications
[EXTENSIONS]
1 1 1 0

# Extension specification for digital output and input triggers:
# id type channel delay (us) duration (us)
extension TRIGGERS 1
1 1 3 1000 10

# Sequence Shapes
[SHAPES]

shape_id 1
num_samples 5004
0
0
0
0.00468068371
0.0187227319
0.0421261179
0.0744951949
0.0931186319
0.111741569
0.130363647
0.148984367
0.167603063
0.186218883
0.204830763
0.223437403
0.242037245
0.26062845
0.279208872
0.297776037
0.316327122
0.334858927
0.353367855
0.371849891
0.390300574
0.408714982
0.427087705
0.445412825
0.463683896
0.481893921
0.500035335
0.51809998
0.536079094
0.553963285
0.571742519
0.589406101
0.60694266
0.624340133
0.641585757
0.658666049
0.675566804
0.692273079
0.708769189
0.725038703
0.741064436
0.756828452
0.772312059
0.78749582
0.802359551
0.816882333
0.831042523
0.844817767
0.858185018
0.871120555
0.883600008
0.895598388
0.907090114
0.918049052
0.928448552
0.938261494
0.947460336
0.956017166
0.963903759
0.971091642
0.977552159
0.983256544
0.988175999
0.992281776
0.995545267
0.997938094
0.99943221
1
0.999614394
0.998248978
0.995878114
0.992477063
0.988022115
0.982490721
0.975861634
0.968115044
0.959232727
0.949198196
0.937996846
0.925616112
0.912045622
0.897277357
0.881305805
0.864128118
0.845744273
0.826157223
0.805373052
0.783401122
0.760254224
0.73594871
0.710504637
0.683945886
0.656300282
0.627599709
0.597880201
0.567182031
0.535549786
0.503032424
0.469683317
0.435560277
0.400725565
0.365245876
0.329192308
0.29264031
0.255669596
0.21836405
0.180811591
0.143104024
0.105336852
0.067609071
0.0300229241
-0.00731636296
-0.0443008834
-0.0808203785
-0.116762597
-0.152013687
-0.186458615
-0.219981613
-0.252466662
-0.283797995
-0.31386063
-0.342540927
-0.36972717
-0.395310168
-0.419183876
-0.441246033
-0.461398809
-0.479549468
-0.495611033
-0.509502953
-0.521151775
-0.5304918
-0.537465735
-0.542025331
-0.544131993
-0.543757369
-0.540883909
-0.535505381
-0.52762735
-0.517267602
-0.504456519
-0.489237393
-0.471666668
-0.451814116
-0.429762933
-0.405609757
-0.379464589
-0.351450633
-0.321704035
-0.290373518
-0.257619928
-0.223615659
-0.188543985
-0.152598278
-0.115981121
-0.0789033131
-0.0415827756
-0.00424335072
0.0328864928
0.0695750478
0.105588842
0.140694191
0.174658818
0.207253538
0.238253989
0.267442401
0.29460939
0.319555758
0.3420943
0.362051575
0.379269651
0.393607791
0.404944069
0.413176891
0.418226415
0.420035831
0.418572513
0.413828988
0.405823739
0.394601803
0.380235158
0.362822886
0.342491088
0.319392556
0.293706184
0.265636107
0.235410579
0.203280569
0.169518089
0.13441426
0.0982771098
0.0614291302
0.0242045922
-0.013053352
-0.0499957656
-0.0862711963
-0.12152909
-0.155423322
-0.187615803
-0.217780139
-0.245605286
-0.270799181
-0.293092288
-0.312241022
-0.328031008
-0.340280131
-0.34884132
-0.353605038
-0.354501427
-0.351502063
-0.344621293
-0.333917111
-0.319491548
-0.301490552
-0.280103323
-0.255561117
-0.228135475
-0.198135914
-0.165907054
-0.131825219
-0.0962945182
-0.0597424535
-0.0226150753
0.0146282528
0.0515204329
0.0875924908
0.122379644
0.155427504
0.186298333
0.214577268
0.239878423
0.261850774
0.280183745
0.294612388
0.304922071
0.310952592
0.312601628
0.309827445
0.302650794
0.291155952
0.27549083
0.255866138
0.232553574
0.205883016
0.176238756
0.14405476
0.109809028
0.0740170924
0.037224733
-1.39808046e-15
-0.0370753486
-0.0734148764
-0.10843683
-0.141573685
-0.172281728
-0.200050505
-0.224411966
-0.244949157
-0.261304264
-0.273185863
-0.280375218
-0.282731473
-0.280195617
-0.2727931
-0.260635011
-0.24391774
-0.222921086
-0.198004789
-0.169603497
-0.138220209
-0.104418274
-0.0688120344
-0.0320562675
0.00516542501
0.0421530815
0.0782034843
0.112623665
0.144744556
0.173934518
0.199612467
0.221260325
0.238434507
0.250776196
0.258020127
0.260001676
0.256662032
0.248051289
0.234329324
0.215764377
0.192729279
0.165695351
0.135224024
0.10195629
0.0666001676
0.0299163751
-0.00729750153
-0.0442240484
-0.080043915
-0.113954177
-0.145186759
-0.173026499
-0.196828411
-0.216033734
-0.230184333
-0.238935075
-0.242063815
-0.239478685
-0.231222429
-0.217473588
-0.198544412
-0.174875466
-0.147026944
-0.115666836
-0.0815561394
-0.0455314005
-0.00848496468
0.0286566361
0.0649556519
0.0994868836
0.131361656
0.159751371
0.183910014
0.203194973
0.217085586
0.225198839
0.227301713
0.223319764
0.213341577
0.19761887
0.176562117
0.150731697
0.120824684
0.0876575313
0.0521450346
0.0152760654
-0.0219133178
-0.0583686748
-0.0930471233
-0.124947573
-0.153140371
-0.176795477
-0.195208282
-0.207822249
-0.214247607
-0.214275427
-0.207886539
-0.195254871
-0.176744977
-0.152903657
-0.124445794
-0.0922346868
-0.0572573614
-0.0205954974
0.0166072077
0.0531802961
0.0879633646
0.119843287
0.147790649
0.170894191
0.188392075
0.19969886
0.204427204
0.202403407
0.193676148
0.178517931
0.15741902
0.131073882
0.100360408
0.0663124575
0.0300865072
-0.00707658523
-0.0438934783
-0.079082528
-0.111408746
-0.139727959
-0.163028568
-0.180469363
-0.191411917
-0.195446271
-0.192408797
-0.182391418
-0.165741608
-0.143052988
-0.115146613
-0.083043455
-0.047928883
-0.0111103172
0.0260305132
0.0620890031
0.095690914
0.125545413
0.150495849
0.169566238
0.182001537
0.18729998
0.185236013
0.175872706
0.159562899
0.136938782
0.108890069
0.0765313814
0.0411599314
0.00420501863
-0.0328287739
-0.068422476
-0.101105281
-0.129516183
-0.152462088
-0.168969881
-0.178330105
-0.180130212
-0.174275727
-0.16099816
-0.140849026
-0.114679922
-0.0836092432
-0.0489766757
-0.0122872276
0.0248529758
0.0608064508
0.0939766794
0.122879813
0.146212516
0.16291279
0.172210877
0.173667693
0.167198772
0.153082299
0.131950538
0.104764685
0.0727739823
0.0374606766
0.00047312258
-0.0364500536
-0.0715613048
-0.103187255
-0.129809582
-0.150139736
-0.163183761
-0.168293838
-0.165203779
-0.154046378
-0.135351409
-0.110023955
-0.079303764
-0.0447072618
-0.00795478558
0.0291135876
0.064629589
0.0967911727
0.123955027
0.144722398
0.158013666
0.16312758
0.159781783
0.148132111
0.128769255
0.102692497
0.071261467
0.0361280403
-0.000848370958
-0.0376979255
-0.0724448702
-0.103213965
-0.128333069
-0.146426226
-0.15649196
-0.157962193
-0.150738151
-0.135200828
-0.112194934
-0.0829867044
-0.0491974571
-0.0127161618
0.0244044156
0.0600624051
0.0922260173
0.11905047
0.138985881
0.150869717
0.153998143
0.148171708
0.133712214
0.111449246
0.0826765665
0.0490804253
0.0126435036
-0.024470206
-0.0600430388
-0.0919363565
-0.118220374
-0.137293176
-0.147981472
-0.149616583
-0.142080537
-0.125818882
-0.10181882
-0.0715533799
-0.0368945168
-3.62994816e-16
0.0368192442
0.0712433163
0.101090109
0.124455353
0.139836868
0.146234759
0.143220666
0.130971046
0.110261665
0.0824229997
0.0492587393
0.0129321245
-0.0241729682
-0.0596074327
-0.0910187892
-0.116308802
-0.133776224
-0.142234807
-0.141098183
-0.130425282
-0.110922514
-0.0839018143
-0.0511966713
-0.0150411745
0.0220801855
0.0576020651
0.0890556919
0.114241909
0.131387628
0.139274403
0.137329554
0.125672763
0.105114047
0.077102441
0.0436282473
0.00708507627
-0.0298990078
-0.0646495263
-0.0946394457
-0.117674795
-0.132058295
-0.136718601
-0.131295025
-0.11617074
-0.092451128
-0.0618879789
-0.0267543351
0.0103214295
0.0465504397
0.0791927777
0.105765887
0.124236002
0.133177675
0.131888609
0.120450229
0.0997284094
0.0713133368
0.0374022062
0.00063300856
-0.0361183358
-0.0699621037
-0.098222778
-0.118652911
-0.129615586
-0.130220403
-0.120401333
-0.100929263
-0.0733571674
-0.0399012935
-0.00326699796
0.0335674262
0.0675918959
0.0960112388
0.116477195
0.1272863
0.127526678
0.11716073
0.0970357939
0.068820769
0.034872876
-0.00195526727
-0.0385528396
-0.0718127935
-0.0988966466
-0.117479462
-0.125953672
-0.123573535
-0.110526844
-0.0879265197
-0.0577216262
-0.0225343321
0.0145640083
0.0503188911
0.0815779779
0.105570723
0.120157383
0.124024761
0.116810367
0.0991427909
0.0725933796
0.039542271
0.00296962797
-0.0338100599
-0.0674472206
-0.0948631068
-0.113534378
-0.121729826
-0.118676662
-0.104639902
-0.0809061831
-0.0496721201
-0.0138462365
0.0232181807
0.0580351518
0.0873141513
0.108273447
0.118908598
0.118189837
0.106168388
0.0839802035
0.053745253
0.0183706059
-0.0187249916
-0.0539393748
-0.0838367753
-0.105485248
-0.116748388
-0.116501934
-0.104752779
-0.0826471844
-0.0523658085
-0.0169144111
0.0201702983
0.0551713328
0.0845640993
0.105373723
0.11548059
0.113842311
0.100608296
0.0771137058
0.0457517054
0.00973548066
-0.027226965
-0.0613127562
-0.0889801234
-0.107339368
-0.114459686
-0.10957879
-0.0931919321
-0.0670092734
-0.0337842913
0.00297033704
0.0393506729
0.0714751354
0.095900122
0.109993004
0.112221717
0.10232851
0.081367433
0.0515996355
0.0162559635
-0.020808972
-0.0555347691
-0.0841002259
-0.103346595
-0.111131947
-0.106576376
-0.0901692583
-0.0637247497
-0.0301884598
0.00668495333
0.0427486641
0.0739291736
0.0966882969
0.10842907
0.107798552
0.0948515162
0.0710544363
0.0391271742
0.00273851299
-0.03391117
-0.0665731449
-0.0914441112
-0.105613028
-0.107408069
-0.0966016807
-0.0744477253
-0.0435441665
-0.00753526393
0.029313432
0.0626183199
0.0884001324
0.103563143
0.106273072
0.0961868732
0.0745047144
0.0438355941
0.00789050988
-0.0289616367
-0.0622228968
-0.0878161727
-0.102588858
-0.10470757
-0.0938938052
-0.0714693117
-0.0402031051
-0.00397669901
0.0326929227
0.0652146083
0.0894991397
0.102477725
0.102496632
0.0895364147
0.0652256529
0.0326449123
-0.0040566706
-0.0401853789
-0.0711019121
-0.0928191489
-0.102521435
-0.0989371505
-0.0825143392
-0.0553740913
-0.0210450184
0.0159890999
0.0508713912
0.0790086302
0.096679234
0.101531658
0.0929056806
0.0719316368
0.0413916479
0.00535851374
-0.0313419711
-0.06377507
-0.0875619106
-0.0994753528
-0.097885245
-0.0829906861
-0.0568050403
-0.0228927762
0.014108775
0.0491195757
0.0773139112
0.0947887495
0.0991104676
0.0896625194
0.0677432332
0.0363970985
-2.6146635e-15
-0.0363462834
-0.0675273245
-0.0891376302
-0.0981085273
-0.0931521404
-0.0749561228
-0.0460984218
-0.0106909733
0.0261997658
0.0592747562
0.0837643902
0.0961209222
0.0945401708
0.07923471
0.0524158624
0.017983733
-0.0190327319
-0.0532063729
-0.0795075971
-0.0940486549
-0.0946657294
-0.0812506449
-0.0557799889
-0.0220338245
0.014957545
0.049658998
0.0768584452
0.0924533965
0.0940770285
0.0814671656
0.0565192566
0.0230116888
-0.0139584008
-0.0487458507
-0.0760189515
-0.0915803337
-0.0930203555
-0.0801001971
-0.0548023008
-0.0210365805
0.0159557656
0.0504112423
0.0769417362
0.0913811589
0.0914474353
0.0771134824
0.0506253399
0.0161606469
-0.0208223373
-0.0544450347
-0.0793432809
-0.0915278568
-0.0890320658
-0.0722399467
-0.0438387267
-0.00839904353
0.0283532167
0.0604587077
0.0826922288
0.0914188752
0.0851975721
0.0650303333
0.0342124315
-0.00219621135
-0.0381952977
-0.0678309383
-0.0861830576
-0.090189271
-0.0791661589
-0.0549375789
-0.0215442744
0.0154210002
0.0497450106
0.0756379868
0.088714694
0.0867456895
0.0700486736
0.0414494344
0.00581444051
-0.0307695293
-0.0620317972
-0.0825943735
-0.0889036342
-0.079854621
-0.0569966082
-0.0242798139
0.0126175484
0.0472689884
0.0736182408
0.087042075
0.0851701977
0.0683153799
0.0394338221
0.00361782757
-0.0327942045
-0.0633363596
-0.0825655668
-0.08703874
-0.075940078
-0.0512423856
-0.017368564
0.0195909483
0.0529680935
0.0767204028
0.0865304002
0.0806002308
0.0599935464
0.0284575202
-0.0082477856
-0.0433947168
-0.0705195913
-0.0846154142
-0.0830649757
-0.0661388688
-0.0369615378
-0.00094622708
0.0352012354
0.0647280507
0.0820986907
0.0840406242
0.0701725486
0.0430924166
0.00790313898
-0.0287398847
-0.0598834109
-0.0795974852
-0.0841117736
-0.0725480279
-0.0471042982
-0.0126500087
0.0241961004
0.0563325249
0.0775446792
0.0837134025
0.0736260393
0.0492282999
0.0152622059
-0.021645231
-0.0542695444
-0.0762035358
-0.0831220891
-0.0736461872
-0.0496314068
-0.0158180627
0.0210938605
0.0537666382
0.0756839535
0.0824570643
0.0727149316
0.0483955864
0.0143742636
-0.0225032422
-0.0547925537
-0.0759542353
-0.0816851077
-0.0708049853
-0.0455138162
-0.0109605929
0.0257944342
0.0572172815
0.0768459063
0.0806266952
0.0677638584
0.0409013084
0.0055928764
-0.0308359245
-0.0608034545
-0.0780522217
-0.078964059
-0.0633320636
-0.0344219903
0.00169662376
0.0374155208
0.0651872993
0.0791239163
0.0762548299
0.0571739436
0.0259316477
-0.0108121486
-0.0451997095
-0.0698544256
-0.0794686569
-0.0719575671
-0.0489257836
-0.0153394558
0.0215326829
0.0536860953
0.0741187738
0.0783635384
0.0654774126
0.0382662675
0.00268826995
-0.0334403174
-0.0621582175
-0.0771166116
-0.0749924101
-0.0562406479
-0.0250126348
0.0117496521
0.0458484502
0.0696569216
0.0778310043
0.0685209106
0.0438050242
0.00924118394
-0.0273713782
-0.057746375
-0.0749877757
-0.0751644019
-0.058220303
-0.0280070021
0.00857779463
0.0431557644
0.0677846406
0.0767880598
0.0680757811
0.04364455
0.00913617942
-0.0274531676
-0.0576200937
-0.07433219
-0.073676749
-0.055791329
-0.0248515768
0.0118893307
0.0457921163
0.0688614301
0.0756378625
0.064502766
0.038081078
0.00263831649
-0.0333936294
-0.0614178724
-0.0747271809
-0.0701200792
-0.0486864873
-0.0155665157
0.0212685711
0.0529274842
0.0717457823
0.0731500078
0.0567836801
0.0266145134
-0.0100122921
-0.0441526038
-0.0674455545
-0.0741675059
-0.0626516928
-0.035718279
5.59232182e-15
0.0356795216
0.0624812601
0.0737448181
0.0666554025
0.0429636768
0.00857047012
-0.0279296311
-0.057389752
-0.0724053122
-0.0691855728
-0.0485265554
-0.0156317424
0.021184022
0.0525883585
0.0705977208
0.0706161621
0.0526235946
0.0212025164
-0.0156136245
-0.0483850703
-0.0686854533
-0.0712765546
-0.0554748246
-0.0253494437
0.0113093633
0.0449944958
0.0669457731
0.0714353881
0.0572769452
0.0281568428
-0.00830882485
-0.0425550789
-0.0655743924
-0.0712925555
-0.0581857145
-0.0297044573
0.00661750585
0.0411444982
0.0646920388
0.0709763782
0.0583054831
0.0300527426
-0.00622376997
-0.0407913278
-0.0643505806
-0.0705436506
-0.0576842008
-0.0292349431
0.00710727111
0.0414819312
0.0645372487
0.0699810662
0.056312725
0.0272553152
-0.0092409235
-0.043162217
-0.0651763327
-0.0692073633
-0.0541278839
-0.024093122
0.0125866445
0.0457344076
0.0661284934
0.0680763357
0.051019384
0.0197123342
-0.0170851985
-0.0490494512
-0.0671885543
-0.0663816117
-0.0468412338
-0.0140771972
0.0226406597
0.0528962556
0.0680833698
0.0638647944
0.0414287784
0.0071738534
-0.0291003974
-0.0569895998
-0.0684721154
-0.060229124
-0.0346226214
0.000962085893
0.0362321734
0.0609594365
0.0679520813
0.0551611598
0.0263004981
-0.0102128511
-0.0437009752
-0.0643453007
-0.0660736567
-0.0483629362
-0.0164174189
0.0203428019
0.0510495909
0.0666005663
0.0623684631
0.0395963888
0.005052944
-0.0309636155
-0.057688535
-0.0671120889
-0.0563942311
-0.0287403209
0.00753782473
0.0415066105
0.0629024914
0.0652409588
0.0477986192
0.0158575429
-0.0208760385
-0.0512109627
-0.065881452
-0.0603891023
-0.0364013467
-0.00126594495
0.0342238576
0.0591387357
0.0657845089
0.0520937056
0.022289433
-0.0143976978
-0.0465759863
-0.0642285845
-0.0618418997
-0.0401463159
-0.00591398929
0.0301378402
0.056694368
0.0653984943
0.0534955111
0.0247257187
-0.0118305715
-0.0446055796
-0.0632023507
-0.0617026411
-0.0405689589
-0.00652368229
0.0295715184
0.0561727816
0.0647500261
0.0525372493
0.0234456835
-0.0131681984
-0.0454985673
-0.0630951404
-0.0602514775
-0.0378748067
-0.00321859342
0.0324512117
0.0575111622
0.0637732251
0.0491762936
0.0184863912
-0.0182390911
-0.0489350853
-0.0634924523
-0.0570994689
-0.0318527624
0.00390823709
0.038339682
0.0600108244
0.0617066637
0.0428482012
0.00971251273
-0.0266372138
-0.0540356627
-0.0632899905
-0.0512793314
-0.0220292044
0.0146161861
0.0462932756
0.0622890405
0.0571756216
0.0326727396
-0.00290795157
-0.0374651839
-0.0592181597
-0.0607304575
-0.041470779
-0.00802252493
0.0281468827
0.0546079682
0.0622444693
0.0484101092
0.0178683203
-0.0188263226
-0.0489626038
-0.0620761171
-0.0535962197
-0.0264609573
0.00987805108
0.0427319417
0.0606020508
0.0572148573
0.0337449657
-0.00156864616
-0.0362966898
-0.058187864
-0.05949849
-0.0397507757
-0.00593061578
0.0299636347
0.0551685664
0.0606990954
0.0445688503
0.0125272554
-0.0239682216
-0.0518373472
-0.0610675551
-0.048326827
-0.0181898513
0.0184818942
0.048440867
0.0608391821
0.0511705264
0.0229308836
-0.013622048
-0.0451792888
-0.0602244695
-0.053249006
-0.0267912942
0.00946293666
0.0422094161
0.059403961
0.0547033976
0.0298273508
-0.00604633968
-0.0396495614
-0.0585261322
-0.0556590076
-0.03210001
0.00339120087
0.0375850586
0.0577072667
0.0562200587
0.0336667164
-0.00150176519
-0.0360736069
-0.0570324688
-0.0564664498
-0.0345754341
0.000373970409
0.0351498773
0.0565571361
0.056451985
0.034860656
-9.88006395e-16
-0.0348290115
-0.056308401
-0.0562036371
-0.0345411516
0.000370990565
0.0351087977
0.0562862222
0.0557215477
0.0336192685
-0.00147792765
-0.0359704331
-0.0564639744
-0.0549796158
-0.0320816874
0.00331077713
0.0373778833
0.0567885335
0.0539266714
0.0299016133
-0.00585590379
-0.0392759446
-0.0571800053
-0.0524883752
-0.0270424725
0.0090918411
0.0415872127
0.0575313883
0.0505701147
0.0234632369
-0.0129835145
-0.0442082832
-0.0577086094
-0.0480612746
-0.0191255244
0.0174750984
0.0470056496
0.0575515161
0.0448413367
0.014002587
-0.0224818203
-0.049811942
-0.0568765409
-0.0407882898
-0.00809019399
0.0278812199
0.0524233463
0.0554818596
0.0357897785
0.0014192231
-0.0335046367
-0.0545992547
-0.0531559152
-0.0297572683
0.00593053218
0.0391300156
0.0560653831
0.0496901266
0.0226432186
-0.01381624
-0.0444774798
-0.0565217179
-0.0448964133
-0.0144608068
0.022019011
0.0492094619
0.0556566434
0.0386297745
0.00530512109
-0.0302339835
-0.0529374458
-0.0531683856
-0.0308155229
0.00462605184
0.0380661021
0.055237451
0.0487943936
0.0214798589
-0.0150146376
-0.0450346534
-0.0556761571
-0.0423483819
-0.0107812781
0.0254116158
0.0505898391
0.0538488863
0.0337634285
-0.000961092871
-0.0352378186
-0.0541444148
-0.049429391
-0.0231377533
0.0132475878
0.0438011209
0.055122494
0.0422294566
0.0107777113
-0.0253931231
-0.0503346641
-0.0530257913
-0.0322637242
0.00276965335
0.0365446124
0.0540594356
0.0475147416
0.0198120352
-0.0167040155
-0.0457275424
-0.0542718534
-0.0384980947
-0.00546838074
0.0299896207
0.05192661
0.0504528207
0.0262200475
-0.0098371419
-0.0414134036
-0.0542013403
-0.0423890892
-0.0113293448
0.0248582186
0.0496901467
0.0518313998
0.0302912121
-0.00508890073
-0.0381076251
-0.0536154242
-0.0444781204
-0.0148859001
0.0215392782
0.047996655
0.0522578651
0.0323394396
-0.00254416769
-0.0362180828
-0.0530381365
-0.0451704348
-0.0162667374
0.0202009834
0.0472013485
0.0520988951
0.0325875313
-0.00219356787
-0.0359151002
-0.0527148428
-0.0446706991
-0.0155635017
0.0208702349
0.0474025414
0.0514620371
0.0311114484
-0.00399745411
-0.0371759672
-0.0526229292
-0.0429627691
-0.0127950703
0.0234657229
0.048460323
0.050198458
0.0278333154
-0.00789504089
-0.0397927019
-0.0524800681
-0.0398222671
-0.00792478926
0.0277822672
0.0499932397
0.047920556
0.0225589072
-0.0137607879
-0.0433442027
-0.0517511922
-0.0348626222
-0.000929179973
0.0334314897
0.0513611386
0.044042565
0.0150631136
-0.0213127397
-0.0471455497
-0.049670157
-0.0276259138
0.00808219447
0.0397527733
0.0516566568
0.0378645603
0.0052305803
-0.0299844351
-0.0502011053
-0.0453054131
-0.0177352148
0.0187018942
0.0457226453
0.0497425648
0.0287270584
-0.00674683342
-0.038787475
-0.0512051098
-0.037707746
-0.0051197155
0.0300386398
0.0499113786
0.0443839988
0.0162585933
-0.0201344739
-0.0462174273
-0.0486499493
-0.0261749739
0.00969914135
0.040565745
0.050558516
0.0345246156
0.000713338651
-0.0334385625
-0.050286941
-0.0411073137
-0.0106418264
0.0253185608
0.0481007987
0.0458512395
0.0197289443
-0.0166583631
-0.0443197707
-0.0487916866
-0.0277221807
0.00785904909
0.0392874486
0.0500472854
0.034467576
0.000742911981
-0.0333464674
-0.0497961374
-0.0398983421
-0.00888145557
0.0268194797
0.048253661
0.0440205411
0.0163608702
-0.0199958622
-0.04565331
-0.046897603
-0.0230514016
0.0131236255
0.0422307834
0.0486350618
0.0288819366
-0.0064057432
-0.038211905
-0.0493664901
-0.0338310147
-6.00322669e-15
0.0338040263
0.0492412499
0.0379171915
0.00597854362
-0.0291905919
-0.0484143703
-0.0411895334
-0.0114533086
0.0245283831
0.0470386255
0.043718795
0.0163808986
-0.0199469055
-0.0452587118
-0.0455896225
-0.0207453349
0.0155493928
0.0432073076
0.0468939613
0.024552274
-0.0114149442
-0.041002737
-0.0477257096
-0.0278235297
0.00760137535
0.0387479312
0.0481765673
0.0305921064
-0.00414843757
-0.0365303862
-0.0483329657
-0.0328978585
0.00108113786
0.0344228361
0.0482739268
0.0347838173
0.00158704194
-0.032484397
-0.0480696845
-0.0362931759
-0.003851165
0.0307619719
0.0477809005
0.0374668848
0.00571218813
-0.0292917492
-0.0474583202
-0.0383417944
-0.00717468999
0.0281006631
0.047142727
0.038949269
0.00824500183
-0.0272077136
-0.0468650791
-0.0393141977
-0.00892974472
0.0266250785
0.0466467326
0.0394543383
0.00923476657
-0.0263589651
-0.0464996805
-0.0393799369
-0.00916446719
0.0264101725
0.0464267555
0.0390935852
0.00872149939
-0.0267743502
-0.0464217725
-0.038590292
-0.00790683634
0.02744195
0.0464696016
0.0378577626
0.00672019923
-0.0283978812
-0.0465461867
-0.0368768978
-0.00516084242
0.0296208917
0.0466185432
0.0356225387
0.00322869521
-0.0310827097
-0.04664479
-0.0340644973
-0.000925857394
0.0327469976
0.0465742875
0.0321689253
-0.00174155993
-0.0345681886
-0.0463479765
-0.0299000761
0.00476126926
0.0364902984
0.0458990275
0.0272225173
-0.00811235743
-0.0384458311
-0.0451539261
-0.0241038432
0.01176262
0.0403549279
0.0440341291
0.0205179144
-0.0156657834
-0.0421249359
-0.0424584296
-0.0164486269
0.0197587642
0.0436506055
0.0403461578
0.0118941616
-0.0239591675
-0.0448151468
-0.0376213208
-0.00687160966
0.0281632855
0.0454923912
0.0342177406
0.00142178785
-0.0322449136
-0.0455503003
-0.03008518
0.0043860328
0.0360553596
0.0448560387
0.025196351
-0.0104498653
-0.0394250564
-0.0432827679
-0.019554575
0.0166317028
0.0421672069
0.0407182193
0.0132017111
-0.0227557661
-0.0440838632
-0.0370749572
-0.0062257905
0.0286089803
0.0449747673
0.0323020471
-0.00123238958
-0.0339444024
-0.044649134
-0.0263975926
0.00897464887
0.0384883053
0.0429403324
0.0194213175
-0.0167438687
-0.0419515156
-0.0397231088
-0.0115060524
0.0242266781
0.0440453874
0.0349325965
0.00286667665
-0.0310615469
-0.0445024395
-0.0285838846
0.00619519417
0.0368532993
0.0431011865
0.0207904095
-0.0152926403
-0.0411947112
-0.0396940538
-0.0117789315
0.0239628406
0.043695297
0.0342365137
0.00189844836
-0.0316860367
-0.044016585
-0.0268147706
0.00837983304
0.0379150845
0.0419121627
0.0176685528
-0.0184742834
-0.0421156916
-0.0372695847
-0.00720495919
0.0277187424
0.0438161473
0.0301499925
-0.00400096281
-0.0354038868
-0.0426637309
-0.0208201622
0.0152230115
0.040833913
0.0384831529
0.00977089382
-0.0256211928
-0.043396277
-0.0313305496
0.00228455358
0.0343011372
0.0426397132
0.0215350012
-0.0144376164
-0.0403944951
-0.0383530169
-0.00971865413
0.0256410443
0.0431559043
0.0306345238
-0.00321328816
-0.0347958466
-0.0420682922
-0.0199403464
0.0161198075
0.0408652141
0.0369444123
0.00709882717
-0.0277122656
-0.0430069114
-0.0280092916
0.00672005647
0.036682094
0.0407101131
0.0159465154
-0.0200879703
-0.0418598059
-0.033917656
-0.00189187565
0.0314556227
0.0423895823
0.0231113169
-0.0126383718
-0.0393371769
-0.0378963833
-0.00933728039
0.0258901234
0.0425244733
0.0286170307
-0.00584743625
-0.0360797141
-0.0403036481
-0.0154647581
0.0205184158
0.0416494929
0.0326384524
1.12004587e-15
-0.0326147321
-0.0415384677
-0.0202806098
0.015710136
0.0402379592
0.0354239931
0.00477027986
-0.0293450207
-0.0419816248
-0.0238839374
0.0116991678
0.0386760242
0.0372372437
0.0084307734
-0.0265578903
-0.0419602809
-0.0264133828
0.00861798266
0.0372563783
0.0383170321
0.0110054344
-0.0244439075
-0.0417302116
-0.0280074898
0.0065307591
0.0361829378
0.0388527042
0.0125397699
-0.0231176157
-0.0414693446
-0.0287778189
0.00546055669
0.0355797853
0.0389705212
0.0130762534
-0.0226352009
-0.0412772655
-0.028792778
0.00540822891
0.0354996588
0.0387274792
0.0126398689
-0.0230061871
-0.0411768739
-0.0280701196
0.00636220315
0.0359291753
0.0381099497
0.0112331021
-0.0241977932
-0.0411160403
-0.0265767367
0.00829900007
0.0367896109
0.0370359429
0.00883989333
-0.0261317117
-0.0409687652
-0.0242353805
0.0111747337
0.0379335133
0.0353612611
0.00543846384
-0.0286740318
-0.0405369298
-0.0209389326
0.0149081802
0.0391388489
0.0328911958
0.00102318068
-0.031620104
-0.0395552617
-0.0165736055
0.0193566613
0.0401039028
0.0294005298
-0.00436461972
-0.0346775614
-0.0377035366
-0.0110526055
0.0242872533
0.0404477938
0.0246651942
-0.0105979904
-0.0374525806
-0.0346310896
-0.0043610183
0.0293478972
0.0397230655
0.0185085649
-0.017421239
-0.0394466788
-0.0299989627
0.00338946778
0.0340458428
0.0374479003
0.0108635444
-0.0244090587
-0.0400734739
-0.0235437988
0.0119012102
0.0377441613
0.0331652833
0.00184766286
-0.0309391804
-0.0387059747
-0.0151640256
0.0206374152
0.03968989
0.0265337482
-0.00815793192
-0.0361945425
-0.0347637228
-0.00502217762
0.0287926022
0.0390881496
0.0174479147
-0.0184433137
-0.0392142901
-0.0278437038
0.00635292134
0.0353104908
0.0352330266
0.00617593515
-0.0279455918
-0.0390121038
-0.0178876846
0.0179929907
0.0389758623
0.027695599
-0.00651452312
-0.0352999961
-0.0347719976
-0.00536084879
0.0284871104
0.038601969
0.0165503642
-0.019287486
-0.0390003381
-0.0261125776
0.00860596034
0.036095448
0.0333175495
0.00259402818
-0.0302861106
-0.0376890024
-0.0133797041
0.0221796934
0.0390186
0.0229242251
-0.0125198223
-0.0373551636
-0.0305632093
0.00211175199
0.0329735328
0.0358303188
0.00824768653
-0.0263288553
-0.0384719927
-0.0178302405
0.0180024251
0.0384432718
0.0260229642
-0.00864487587
-0.035887982
-0.0323597738
-0.00107823636
0.0311073169
0.0365376784
0.0105345146
-0.0245211267
-0.0384188421
-0.0191637398
0.0166260553
0.0380205831
0.0265063203
-0.00795418309
-0.0354960036
-0.0322207764
-0.000964864681
0.03110819
0.0360907852
0.00963619179
-0.0252008819
-0.0380230117
-0.0176249506
0.0181682382
0.0380374109
0.024574133
-0.0104259114
-0.0362519235
-0.0302149111
0.00238513232
0.0328635257
0.0343701167
0.00556902283
-0.0281274827
-0.0369518184
-0.0130945232
0.0223364245
0.0379541695
0.0199042235
-0.0158005648
-0.0374427915
-0.0257728208
0.00883005588
0.0355419415
0.0305393783
-0.00172013995
-0.0324206067
-0.0341060605
-0.00526054714
0.0282785153
0.036433833
0.0118784287
-0.0233328619
-0.0375359169
-0.0179403202
0.017806343
0.0374697631
0.0232959272
-0.0119169041
-0.0363282461
-0.0278378988
0.00586941641
0.0342306812
0.0314998901
0.000150647512
-0.0313141539
-0.0342531045
-0.00598159966
0.0277255359
0.036101773
0.0114881345
-0.0236144466
-0.037077994
-0.0165623554
0.0191273147
0.0372362987
0.0211234823
-0.0144026076
-0.0366482482
-0.0251165104
0.00956721912
0.0353973024
0.0285100825
-0.00473395336
-0.0335741366
-0.0312938252
-1.45197927e-15
0.0312725211
0.0334753685
0.00455372902
-0.0285858308
-0.0350772399
-0.00886254381
0.025604205
0.0361337849
0.0128773473
-0.0224123456
-0.036688238
-0.0165635731
0.0190879137
0.0367900278
0.0198998187
-0.0157004682
-0.0364923772
-0.0228762897
0.0123108781
0.0358502298
0.0254931512
-0.00897113503
-0.0349185158
-0.0277588676
0.00572449255
0.0337507499
0.0296885922
-0.00260585953
-0.0323979466
-0.0313026548
-0.000357616188
0.0309078237
0.0326251783
0.00314583369
-0.0293242639
-0.0336828454
-0.0057449443
0.0276869977
0.0345038232
0.0081465189
-0.0260314735
-0.035116849
-0.0103467113
0.0243888784
0.0355504699
0.0123454439
-0.0227862777
-0.0358324276
-0.0141456364
0.0212468428
0.0359891735
0.0157524896
-0.0197901411
-0.0360455011
-0.0171728345
0.018432464
0.0360242771
0.018414551
-0.0171871745
-0.0359462568
-0.0194860558
0.0160650572
0.0358299668
0.0203958614
-0.0150746574
-0.0356916417
-0.0211522004
0.0142225997
0.0355452004
0.0217627124
-0.0135138771
-0.0354022496
-0.0222341897
0.0129521049
0.0352721073
0.0225723751
-0.0125397346
-0.0351618331
-0.0227818099
0.0122782256
0.0350762635
0.0228657259
-0.0121681713
-0.0350180433
-0.0228259798
0.0122093792
0.0349876512
0.022663027
-0.0124009055
-0.0349834177
-0.0223759339
0.0127410416
0.0350015349
0.0219624281
-0.0132272567
-0.0350360587
-0.0214189867
0.0138560946
0.0350789069
0.0207409656
-0.0146230287
-0.0351198575
-0.0199227705
0.0155222767
0.0351465521
0.018958074
-0.016546579
-0.0351445123
-0.0178400815
0.0176869462
0.0350971781
0.0165618489
-0.0189323802
-0.0349859779
-0.0151166573
0.0202695792
0.0347904415
0.0134984442
-0.0216826342
-0.0344883694
-0.011702296
0.0231527316
0.0340560709
0.00972499873
-0.0246578751
-0.0334686864
-0.00756564551
0.0261726452
0.0327006057
0.00522629467
-0.0276680179
-0.0317259972
-0.00271266815
0.0291112643
0.0305194589
3.48761157e-05
-0.030465959
-0.0290567999
0.00279185253
0.0316921247
0.0273159575
-0.00574645978
-0.0327465435
-0.0252780502
0.00880140099
0.033583265
0.0229285584
-0.01192208
-0.0341543403
-0.0202586175
0.015066423
0.0344108082
0.017266398
-0.0181846446
-0.0343039547
