# Pulseq sequence file
# Created by MATLAB mr toolbox

[VERSION]
major 1
minor 4
revision 0

[DEFINITIONS]
AdcRasterTime 1e-07 
BlockDurationRaster 1e-05 
CameraAcqDuration 0.1 
CameraAqDelay 0 
CameraInterleaveTR 0.4 
CameraNrDynamics 54 
CameraNrSyncDynamics 0 
GradientRasterTime 1e-05 
Name gtf 
RadiofrequencyRasterTime 1e-06 

# Format of blocks:
# NUM DUR RF  GX  GY  GZ  ADC  EXT
[BLOCKS]
  1   1   0   0   0   0  0  1
  2 499999   0   0   0   0  0  0
  3   1   0   0   0   0  0  1
  4  50   0   0   0   0  0  0
  5   6   0   1   0   0  0  0
  6 499943   0   0   0   0  0  0
  7   1   0   0   0   0  0  1
  8  50   0   0   0   0  0  0
  9   8   0   2   0   0  0  0
 10 499941   0   0   0   0  0  0
 11   1   0   0   0   0  0  1
 12  50   0   0   0   0  0  0
 13  10   0   3   0   0  0  0
 14 499939   0   0   0   0  0  0
 15   1   0   0   0   0  0  1
 16  50   0   0   0   0  0  0
 17  12   0   4   0   0  0  0
 18 499937   0   0   0   0  0  0
 19   1   0   0   0   0  0  1
 20  50   0   0   0   0  0  0
 21  14   0   5   0   0  0  0
 22 499935   0   0   0   0  0  0
 23   1   0   0   0   0  0  1
 24  50   0   0   0   0  0  0
 25  16   0   6   0   0  0  0
 26 499933   0   0   0   0  0  0
 27   1   0   0   0   0  0  1
 28  50   0   0   0   0  0  0
 29  18   0   7   0   0  0  0
 30 499931   0   0   0   0  0  0
 31   1   0   0   0   0  0  1
 32  50   0   0   0   0  0  0
 33  20   0   8   0   0  0  0
 34 499929   0   0   0   0  0  0
 35   1   0   0   0   0  0  1
 36  50   0   0   0   0  0  0
 37  22   0   9   0   0  0  0
 38 499927   0   0   0   0  0  0
 39   1   0   0   0   0  0  1
 40  50   0   0   0   0  0  0
 41  24   0  10   0   0  0  0
 42 499925   0   0   0   0  0  0
 43   1   0   0   0   0  0  1
 44  50   0   0   0   0  0  0
 45  26   0  11   0   0  0  0
 46 499923   0   0   0   0  0  0
 47   1   0   0   0   0  0  1
 48  50   0   0   0   0  0  0
 49  28   0  12   0   0  0  0
 50 499921   0   0   0   0  0  0
 51   1   0   0   0   0  0  1
 52  50   0   0   0   0  0  0
 53  30   0  13   0   0  0  0
 54 499919   0   0   0   0  0  0
 55   1   0   0   0   0  0  1
 56  50   0   0   0   0  0  0
 57  32   0  14   0   0  0  0
 58 499917   0   0   0   0  0  0
 59   1   0   0   0   0  0  1
 60  50   0   0   0   0  0  0
 61  34   0  15   0   0  0  0
 62 499915   0   0   0   0  0  0
 63   1   0   0   0   0  0  1
 64  50   0   0   0   0  0  0
 65  36   0  16   0   0  0  0
 66 499913   0   0   0   0  0  0
 67   1   0   0   0   0  0  1
 68  50   0   0   0   0  0  0
 69  38   0  17   0   0  0  0
 70 499911   0   0   0   0  0  0
 71   1   0   0   0   0  0  1
 72 499999   0   0   0   0  0  0
 73   1   0   0   0   0  0  1
 74  50   0   0   0   0  0  0
 75   6   0   0  18   0  0  0
 76 499943   0   0   0   0  0  0
 77   1   0   0   0   0  0  1
 78  50   0   0   0   0  0  0
 79   8   0   0  19   0  0  0
 80 499941   0   0   0   0  0  0
 81   1   0   0   0   0  0  1
 82  50   0   0   0   0  0  0
 83  10   0   0  20   0  0  0
 84 499939   0   0   0   0  0  0
 85   1   0   0   0   0  0  1
 86  50   0   0   0   0  0  0
 87  12   0   0  21   0  0  0
 88 499937   0   0   0   0  0  0
 89   1   0   0   0   0  0  1
 90  50   0   0   0   0  0  0
 91  14   0   0  22   0  0  0
 92 499935   0   0   0   0  0  0
 93   1   0   0   0   0  0  1
 94  50   0   0   0   0  0  0
 95  16   0   0  23   0  0  0
 96 499933   0   0   0   0  0  0
 97   1   0   0   0   0  0  1
 98  50   0   0   0   0  0  0
 99  18   0   0  24   0  0  0
100 499931   0   0   0   0  0  0
101   1   0   0   0   0  0  1
102  50   0   0   0   0  0  0
103  20   0   0  25   0  0  0
104 499929   0   0   0   0  0  0
105   1   0   0   0   0  0  1
106  50   0   0   0   0  0  0
107  22   0   0  26   0  0  0
108 499927   0   0   0   0  0  0
109   1   0   0   0   0  0  1
110  50   0   0   0   0  0  0
111  24   0   0  27   0  0  0
112 499925   0   0   0   0  0  0
113   1   0   0   0   0  0  1
114  50   0   0   0   0  0  0
115  26   0   0  28   0  0  0
116 499923   0   0   0   0  0  0
117   1   0   0   0   0  0  1
118  50   0   0   0   0  0  0
119  28   0   0  29   0  0  0
120 499921   0   0   0   0  0  0
121   1   0   0   0   0  0  1
122  50   0   0   0   0  0  0
123  30   0   0  30   0  0  0
124 499919   0   0   0   0  0  0
125   1   0   0   0   0  0  1
126  50   0   0   0   0  0  0
127  32   0   0  31   0  0  0
128 499917   0   0   0   0  0  0
129   1   0   0   0   0  0  1
130  50   0   0   0   0  0  0
131  34   0   0  32   0  0  0
132 499915   0   0   0   0  0  0
133   1   0   0   0   0  0  1
134  50   0   0   0   0  0  0
135  36   0   0  33   0  0  0
136 499913   0   0   0   0  0  0
137   1   0   0   0   0  0  1
138  50   0   0   0   0  0  0
139  38   0   0  34   0  0  0
140 499911   0   0   0   0  0  0
141   1   0   0   0   0  0  1
142 499999   0   0   0   0  0  0
143   1   0   0   0   0  0  1
144  50   0   0   0   0  0  0
145   6   0   0   0  18  0  0
146 499943   0   0   0   0  0  0
147   1   0   0   0   0  0  1
148  50   0   0   0   0  0  0
149   8   0   0   0  19  0  0
150 499941   0   0   0   0  0  0
151   1   0   0   0   0  0  1
152  50   0   0   0   0  0  0
153  10   0   0   0  20  0  0
154 499939   0   0   0   0  0  0
155   1   0   0   0   0  0  1
156  50   0   0   0   0  0  0
157  12   0   0   0  21  0  0
158 499937   0   0   0   0  0  0
159   1   0   0   0   0  0  1
160  50   0   0   0   0  0  0
161  14   0   0   0  22  0  0
162 499935   0   0   0   0  0  0
163   1   0   0   0   0  0  1
164  50   0   0   0   0  0  0
165  16   0   0   0  23  0  0
166 499933   0   0   0   0  0  0
167   1   0   0   0   0  0  1
168  50   0   0   0   0  0  0
169  18   0   0   0  24  0  0
170 499931   0   0   0   0  0  0
171   1   0   0   0   0  0  1
172  50   0   0   0   0  0  0
173  20   0   0   0  25  0  0
174 499929   0   0   0   0  0  0
175   1   0   0   0   0  0  1
176  50   0   0   0   0  0  0
177  22   0   0   0  26  0  0
178 499927   0   0   0   0  0  0
179   1   0   0   0   0  0  1
180  50   0   0   0   0  0  0
181  24   0   0   0  27  0  0
182 499925   0   0   0   0  0  0
183   1   0   0   0   0  0  1
184  50   0   0   0   0  0  0
185  26   0   0   0  28  0  0
186 499923   0   0   0   0  0  0
187   1   0   0   0   0  0  1
188  50   0   0   0   0  0  0
189  28   0   0   0  29  0  0
190 499921   0   0   0   0  0  0
191   1   0   0   0   0  0  1
192  50   0   0   0   0  0  0
193  30   0   0   0  30  0  0
194 499919   0   0   0   0  0  0
195   1   0   0   0   0  0  1
196  50   0   0   0   0  0  0
197  32   0   0   0  31  0  0
198 499917   0   0   0   0  0  0
199   1   0   0   0   0  0  1
200  50   0   0   0   0  0  0
201  34   0   0   0  32  0  0
202 499915   0   0   0   0  0  0
203   1   0   0   0   0  0  1
204  50   0   0   0   0  0  0
205  36   0   0   0  33  0  0
206 499913   0   0   0   0  0  0
207   1   0   0   0   0  0  1
208  50   0   0   0   0  0  0
209  38   0   0   0  34  0  0
210 499911   0   0   0   0  0  0
211   2   0  35   0   0  0  0

# Format of arbitrary gradients:
#   time_shape_id of 0 means default timing (stepping with grad_raster starting at 1/2 of grad_raster)
# id amplitude amp_shape_id time_shape_id delay
# ..      Hz/m       ..         ..          us
[GRADIENTS]
35            0 1 2 0

# Format of trapezoid gradients:
# id amplitude rise flat fall delay
# ..      Hz/m   us   us   us    us
[TRAP]
 1      -229910  30    0  30   0
 2      -306547  40    0  40   0
 3      -383184  50    0  50   0
 4      -459821  60    0  60   0
 5      -536458  70    0  70   0
 6      -613094  80    0  80   0
 7      -689731  90    0  90   0
 8      -766368 100    0 100   0
 9      -843005 110    0 110   0
10      -919642 120    0 120   0
11      -996278 130    0 130   0
12 -1.07292e+06 140    0 140   0
13 -1.14955e+06 150    0 150   0
14 -1.22619e+06 160    0 160   0
15 -1.30283e+06 170    0 170   0
16 -1.37946e+06 180    0 180   0
17  -1.4561e+06 190    0 190   0
18       229910  30    0  30   0
19       306547  40    0  40   0
20       383184  50    0  50   0
21       459821  60    0  60   0
22       536458  70    0  70   0
23       613094  80    0  80   0
24       689731  90    0  90   0
25       766368 100    0 100   0
26       843005 110    0 110   0
27       919642 120    0 120   0
28       996278 130    0 130   0
29  1.07292e+06 140    0 140   0
30  1.14955e+06 150    0 150   0
31  1.22619e+06 160    0 160   0
32  1.30283e+06 170    0 170   0
33  1.37946e+06 180    0 180   0
34   1.4561e+06 190    0 190   0

# Format of extension lists:
# id type ref next_id
# next_id of 0 terminates the list
# Extension list is followed by extension specifications
[EXTENSIONS]
1 1 1 0

# Extension specification for digital output and input triggers:
# id type channel delay (us) duration (us)
extension TRIGGERS 1
1 1 3 0 10

# Sequence Shapes
[SHAPES]

shape_id 1
num_samples 2
0
0

shape_id 2
num_samples 2
0.5
1.5


[SIGNATURE]
# This is the hash of the Pulseq file, calculated right before the [SIGNATURE] section was added
# It can be reproduced/verified with md5sum if the file trimmed to the position right above [SIGNATURE]
# The new line character preceding [SIGNATURE] BELONGS to the signature (and needs to be sripped away for recalculating/verification)
Type md5
Hash 680c584a0e79980d738a91adb81ceffb
