# Pulseq sequence file
# Created by MATLAB mr toolbox

[VERSION]
major 1
minor 4
revision 0

[DEFINITIONS]
AdcRasterTime 1e-07 
BlockDurationRaster 1e-05 
CameraAcqDuration 0.1 
CameraAqDelay 0 
CameraInterleaveTR 0.4 
CameraNrDynamics 150 
CameraNrSyncDynamics 0 
GradientRasterTime 1e-05 
Name sweep 
RadiofrequencyRasterTime 1e-06 

# Format of blocks:
# NUM DUR RF  GX  GY  GZ  ADC  EXT
[BLOCKS]
  1 101   0   0   0   0  0  1
  2 5100   0   1   0   0  0  0
  3 200000   0   0   0   0  0  0
  4 101   0   0   0   0  0  1
  5 5100   0   1   0   0  0  0
  6 200000   0   0   0   0  0  0
  7 101   0   0   0   0  0  1
  8 5100   0   1   0   0  0  0
  9 200000   0   0   0   0  0  0
 10 101   0   0   0   0  0  1
 11 5100   0   1   0   0  0  0
 12 200000   0   0   0   0  0  0
 13 101   0   0   0   0  0  1
 14 5100   0   1   0   0  0  0
 15 200000   0   0   0   0  0  0
 16 101   0   0   0   0  0  1
 17 5100   0   1   0   0  0  0
 18 200000   0   0   0   0  0  0
 19 101   0   0   0   0  0  1
 20 5100   0   1   0   0  0  0
 21 200000   0   0   0   0  0  0
 22 101   0   0   0   0  0  1
 23 5100   0   1   0   0  0  0
 24 200000   0   0   0   0  0  0
 25 101   0   0   0   0  0  1
 26 5100   0   1   0   0  0  0
 27 200000   0   0   0   0  0  0
 28 101   0   0   0   0  0  1
 29 5100   0   1   0   0  0  0
 30 200000   0   0   0   0  0  0
 31 101   0   0   0   0  0  1
 32 5100   0   1   0   0  0  0
 33 200000   0   0   0   0  0  0
 34 101   0   0   0   0  0  1
 35 5100   0   1   0   0  0  0
 36 200000   0   0   0   0  0  0
 37 101   0   0   0   0  0  1
 38 5100   0   1   0   0  0  0
 39 200000   0   0   0   0  0  0
 40 101   0   0   0   0  0  1
 41 5100   0   1   0   0  0  0
 42 200000   0   0   0   0  0  0
 43 101   0   0   0   0  0  1
 44 5100   0   1   0   0  0  0
 45 200000   0   0   0   0  0  0
 46 101   0   0   0   0  0  1
 47 5100   0   1   0   0  0  0
 48 200000   0   0   0   0  0  0
 49 101   0   0   0   0  0  1
 50 5100   0   1   0   0  0  0
 51 200000   0   0   0   0  0  0
 52 101   0   0   0   0  0  1
 53 5100   0   1   0   0  0  0
 54 200000   0   0   0   0  0  0
 55 101   0   0   0   0  0  1
 56 5100   0   1   0   0  0  0
 57 200000   0   0   0   0  0  0
 58 101   0   0   0   0  0  1
 59 5100   0   1   0   0  0  0
 60 200000   0   0   0   0  0  0
 61 101   0   0   0   0  0  1
 62 5100   0   1   0   0  0  0
 63 200000   0   0   0   0  0  0
 64 101   0   0   0   0  0  1
 65 5100   0   1   0   0  0  0
 66 200000   0   0   0   0  0  0
 67 101   0   0   0   0  0  1
 68 5100   0   1   0   0  0  0
 69 200000   0   0   0   0  0  0
 70 101   0   0   0   0  0  1
 71 5100   0   1   0   0  0  0
 72 200000   0   0   0   0  0  0
 73 101   0   0   0   0  0  1
 74 5100   0   1   0   0  0  0
 75 200000   0   0   0   0  0  0
 76 101   0   0   0   0  0  1
 77 5100   0   1   0   0  0  0
 78 200000   0   0   0   0  0  0
 79 101   0   0   0   0  0  1
 80 5100   0   1   0   0  0  0
 81 200000   0   0   0   0  0  0
 82 101   0   0   0   0  0  1
 83 5100   0   1   0   0  0  0
 84 200000   0   0   0   0  0  0
 85 101   0   0   0   0  0  1
 86 5100   0   1   0   0  0  0
 87 200000   0   0   0   0  0  0
 88 101   0   0   0   0  0  1
 89 5100   0   1   0   0  0  0
 90 200000   0   0   0   0  0  0
 91 101   0   0   0   0  0  1
 92 5100   0   1   0   0  0  0
 93 200000   0   0   0   0  0  0
 94 101   0   0   0   0  0  1
 95 5100   0   1   0   0  0  0
 96 200000   0   0   0   0  0  0
 97 101   0   0   0   0  0  1
 98 5100   0   1   0   0  0  0
 99 200000   0   0   0   0  0  0
100 101   0   0   0   0  0  1
101 5100   0   1   0   0  0  0
102 200000   0   0   0   0  0  0
103 101   0   0   0   0  0  1
104 5100   0   1   0   0  0  0
105 200000   0   0   0   0  0  0
106 101   0   0   0   0  0  1
107 5100   0   1   0   0  0  0
108 200000   0   0   0   0  0  0
109 101   0   0   0   0  0  1
110 5100   0   1   0   0  0  0
111 200000   0   0   0   0  0  0
112 101   0   0   0   0  0  1
113 5100   0   1   0   0  0  0
114 200000   0   0   0   0  0  0
115 101   0   0   0   0  0  1
116 5100   0   1   0   0  0  0
117 200000   0   0   0   0  0  0
118 101   0   0   0   0  0  1
119 5100   0   1   0   0  0  0
120 200000   0   0   0   0  0  0
121 101   0   0   0   0  0  1
122 5100   0   1   0   0  0  0
123 200000   0   0   0   0  0  0
124 101   0   0   0   0  0  1
125 5100   0   1   0   0  0  0
126 200000   0   0   0   0  0  0
127 101   0   0   0   0  0  1
128 5100   0   1   0   0  0  0
129 200000   0   0   0   0  0  0
130 101   0   0   0   0  0  1
131 5100   0   1   0   0  0  0
132 200000   0   0   0   0  0  0
133 101   0   0   0   0  0  1
134 5100   0   1   0   0  0  0
135 200000   0   0   0   0  0  0
136 101   0   0   0   0  0  1
137 5100   0   1   0   0  0  0
138 200000   0   0   0   0  0  0
139 101   0   0   0   0  0  1
140 5100   0   1   0   0  0  0
141 200000   0   0   0   0  0  0
142 101   0   0   0   0  0  1
143 5100   0   1   0   0  0  0
144 200000   0   0   0   0  0  0
145 101   0   0   0   0  0  1
146 5100   0   1   0   0  0  0
147 200000   0   0   0   0  0  0
148 101   0   0   0   0  0  1
149 5100   0   1   0   0  0  0
150 200000   0   0   0   0  0  0
151 101   0   0   0   0  0  1
152 5100   0   0   1   0  0  0
153 200000   0   0   0   0  0  0
154 101   0   0   0   0  0  1
155 5100   0   0   1   0  0  0
156 200000   0   0   0   0  0  0
157 101   0   0   0   0  0  1
158 5100   0   0   1   0  0  0
159 200000   0   0   0   0  0  0
160 101   0   0   0   0  0  1
161 5100   0   0   1   0  0  0
162 200000   0   0   0   0  0  0
163 101   0   0   0   0  0  1
164 5100   0   0   1   0  0  0
165 200000   0   0   0   0  0  0
166 101   0   0   0   0  0  1
167 5100   0   0   1   0  0  0
168 200000   0   0   0   0  0  0
169 101   0   0   0   0  0  1
170 5100   0   0   1   0  0  0
171 200000   0   0   0   0  0  0
172 101   0   0   0   0  0  1
173 5100   0   0   1   0  0  0
174 200000   0   0   0   0  0  0
175 101   0   0   0   0  0  1
176 5100   0   0   1   0  0  0
177 200000   0   0   0   0  0  0
178 101   0   0   0   0  0  1
179 5100   0   0   1   0  0  0
180 200000   0   0   0   0  0  0
181 101   0   0   0   0  0  1
182 5100   0   0   1   0  0  0
183 200000   0   0   0   0  0  0
184 101   0   0   0   0  0  1
185 5100   0   0   1   0  0  0
186 200000   0   0   0   0  0  0
187 101   0   0   0   0  0  1
188 5100   0   0   1   0  0  0
189 200000   0   0   0   0  0  0
190 101   0   0   0   0  0  1
191 5100   0   0   1   0  0  0
192 200000   0   0   0   0  0  0
193 101   0   0   0   0  0  1
194 5100   0   0   1   0  0  0
195 200000   0   0   0   0  0  0
196 101   0   0   0   0  0  1
197 5100   0   0   1   0  0  0
198 200000   0   0   0   0  0  0
199 101   0   0   0   0  0  1
200 5100   0   0   1   0  0  0
201 200000   0   0   0   0  0  0
202 101   0   0   0   0  0  1
203 5100   0   0   1   0  0  0
204 200000   0   0   0   0  0  0
205 101   0   0   0   0  0  1
206 5100   0   0   1   0  0  0
207 200000   0   0   0   0  0  0
208 101   0   0   0   0  0  1
209 5100   0   0   1   0  0  0
210 200000   0   0   0   0  0  0
211 101   0   0   0   0  0  1
212 5100   0   0   1   0  0  0
213 200000   0   0   0   0  0  0
214 101   0   0   0   0  0  1
215 5100   0   0   1   0  0  0
216 200000   0   0   0   0  0  0
217 101   0   0   0   0  0  1
218 5100   0   0   1   0  0  0
219 200000   0   0   0   0  0  0
220 101   0   0   0   0  0  1
221 5100   0   0   1   0  0  0
222 200000   0   0   0   0  0  0
223 101   0   0   0   0  0  1
224 5100   0   0   1   0  0  0
225 200000   0   0   0   0  0  0
226 101   0   0   0   0  0  1
227 5100   0   0   1   0  0  0
228 200000   0   0   0   0  0  0
229 101   0   0   0   0  0  1
230 5100   0   0   1   0  0  0
231 200000   0   0   0   0  0  0
232 101   0   0   0   0  0  1
233 5100   0   0   1   0  0  0
234 200000   0   0   0   0  0  0
235 101   0   0   0   0  0  1
236 5100   0   0   1   0  0  0
237 200000   0   0   0   0  0  0
238 101   0   0   0   0  0  1
239 5100   0   0   1   0  0  0
240 200000   0   0   0   0  0  0
241 101   0   0   0   0  0  1
242 5100   0   0   1   0  0  0
243 200000   0   0   0   0  0  0
244 101   0   0   0   0  0  1
245 5100   0   0   1   0  0  0
246 200000   0   0   0   0  0  0
247 101   0   0   0   0  0  1
248 5100   0   0   1   0  0  0
249 200000   0   0   0   0  0  0
250 101   0   0   0   0  0  1
251 5100   0   0   1   0  0  0
252 200000   0   0   0   0  0  0
253 101   0   0   0   0  0  1
254 5100   0   0   1   0  0  0
255 200000   0   0   0   0  0  0
256 101   0   0   0   0  0  1
257 5100   0   0   1   0  0  0
258 200000   0   0   0   0  0  0
259 101   0   0   0   0  0  1
260 5100   0   0   1   0  0  0
261 200000   0   0   0   0  0  0
262 101   0   0   0   0  0  1
263 5100   0   0   1   0  0  0
264 200000   0   0   0   0  0  0
265 101   0   0   0   0  0  1
266 5100   0   0   1   0  0  0
267 200000   0   0   0   0  0  0
268 101   0   0   0   0  0  1
269 5100   0   0   1   0  0  0
270 200000   0   0   0   0  0  0
271 101   0   0   0   0  0  1
272 5100   0   0   1   0  0  0
273 200000   0   0   0   0  0  0
274 101   0   0   0   0  0  1
275 5100   0   0   1   0  0  0
276 200000   0   0   0   0  0  0
277 101   0   0   0   0  0  1
278 5100   0   0   1   0  0  0
279 200000   0   0   0   0  0  0
280 101   0   0   0   0  0  1
281 5100   0   0   1   0  0  0
282 200000   0   0   0   0  0  0
283 101   0   0   0   0  0  1
284 5100   0   0   1   0  0  0
285 200000   0   0   0   0  0  0
286 101   0   0   0   0  0  1
287 5100   0   0   1   0  0  0
288 200000   0   0   0   0  0  0
289 101   0   0   0   0  0  1
290 5100   0   0   1   0  0  0
291 200000   0   0   0   0  0  0
292 101   0   0   0   0  0  1
293 5100   0   0   1   0  0  0
294 200000   0   0   0   0  0  0
295 101   0   0   0   0  0  1
296 5100   0   0   1   0  0  0
297 200000   0   0   0   0  0  0
298 101   0   0   0   0  0  1
299 5100   0   0   1   0  0  0
300 200000   0   0   0   0  0  0
301 101   0   0   0   0  0  1
302 5100   0   0   0   1  0  0
303 200000   0   0   0   0  0  0
304 101   0   0   0   0  0  1
305 5100   0   0   0   1  0  0
306 200000   0   0   0   0  0  0
307 101   0   0   0   0  0  1
308 5100   0   0   0   1  0  0
309 200000   0   0   0   0  0  0
310 101   0   0   0   0  0  1
311 5100   0   0   0   1  0  0
312 200000   0   0   0   0  0  0
313 101   0   0   0   0  0  1
314 5100   0   0   0   1  0  0
315 200000   0   0   0   0  0  0
316 101   0   0   0   0  0  1
317 5100   0   0   0   1  0  0
318 200000   0   0   0   0  0  0
319 101   0   0   0   0  0  1
320 5100   0   0   0   1  0  0
321 200000   0   0   0   0  0  0
322 101   0   0   0   0  0  1
323 5100   0   0   0   1  0  0
324 200000   0   0   0   0  0  0
325 101   0   0   0   0  0  1
326 5100   0   0   0   1  0  0
327 200000   0   0   0   0  0  0
328 101   0   0   0   0  0  1
329 5100   0   0   0   1  0  0
330 200000   0   0   0   0  0  0
331 101   0   0   0   0  0  1
332 5100   0   0   0   1  0  0
333 200000   0   0   0   0  0  0
334 101   0   0   0   0  0  1
335 5100   0   0   0   1  0  0
336 200000   0   0   0   0  0  0
337 101   0   0   0   0  0  1
338 5100   0   0   0   1  0  0
339 200000   0   0   0   0  0  0
340 101   0   0   0   0  0  1
341 5100   0   0   0   1  0  0
342 200000   0   0   0   0  0  0
343 101   0   0   0   0  0  1
344 5100   0   0   0   1  0  0
345 200000   0   0   0   0  0  0
346 101   0   0   0   0  0  1
347 5100   0   0   0   1  0  0
348 200000   0   0   0   0  0  0
349 101   0   0   0   0  0  1
350 5100   0   0   0   1  0  0
351 200000   0   0   0   0  0  0
352 101   0   0   0   0  0  1
353 5100   0   0   0   1  0  0
354 200000   0   0   0   0  0  0
355 101   0   0   0   0  0  1
356 5100   0   0   0   1  0  0
357 200000   0   0   0   0  0  0
358 101   0   0   0   0  0  1
359 5100   0   0   0   1  0  0
360 200000   0   0   0   0  0  0
361 101   0   0   0   0  0  1
362 5100   0   0   0   1  0  0
363 200000   0   0   0   0  0  0
364 101   0   0   0   0  0  1
365 5100   0   0   0   1  0  0
366 200000   0   0   0   0  0  0
367 101   0   0   0   0  0  1
368 5100   0   0   0   1  0  0
369 200000   0   0   0   0  0  0
370 101   0   0   0   0  0  1
371 5100   0   0   0   1  0  0
372 200000   0   0   0   0  0  0
373 101   0   0   0   0  0  1
374 5100   0   0   0   1  0  0
375 200000   0   0   0   0  0  0
376 101   0   0   0   0  0  1
377 5100   0   0   0   1  0  0
378 200000   0   0   0   0  0  0
379 101   0   0   0   0  0  1
380 5100   0   0   0   1  0  0
381 200000   0   0   0   0  0  0
382 101   0   0   0   0  0  1
383 5100   0   0   0   1  0  0
384 200000   0   0   0   0  0  0
385 101   0   0   0   0  0  1
386 5100   0   0   0   1  0  0
387 200000   0   0   0   0  0  0
388 101   0   0   0   0  0  1
389 5100   0   0   0   1  0  0
390 200000   0   0   0   0  0  0
391 101   0   0   0   0  0  1
392 5100   0   0   0   1  0  0
393 200000   0   0   0   0  0  0
394 101   0   0   0   0  0  1
395 5100   0   0   0   1  0  0
396 200000   0   0   0   0  0  0
397 101   0   0   0   0  0  1
398 5100   0   0   0   1  0  0
399 200000   0   0   0   0  0  0
400 101   0   0   0   0  0  1
401 5100   0   0   0   1  0  0
402 200000   0   0   0   0  0  0
403 101   0   0   0   0  0  1
404 5100   0   0   0   1  0  0
405 200000   0   0   0   0  0  0
406 101   0   0   0   0  0  1
407 5100   0   0   0   1  0  0
408 200000   0   0   0   0  0  0
409 101   0   0   0   0  0  1
410 5100   0   0   0   1  0  0
411 200000   0   0   0   0  0  0
412 101   0   0   0   0  0  1
413 5100   0   0   0   1  0  0
414 200000   0   0   0   0  0  0
415 101   0   0   0   0  0  1
416 5100   0   0   0   1  0  0
417 200000   0   0   0   0  0  0
418 101   0   0   0   0  0  1
419 5100   0   0   0   1  0  0
420 200000   0   0   0   0  0  0
421 101   0   0   0   0  0  1
422 5100   0   0   0   1  0  0
423 200000   0   0   0   0  0  0
424 101   0   0   0   0  0  1
425 5100   0   0   0   1  0  0
426 200000   0   0   0   0  0  0
427 101   0   0   0   0  0  1
428 5100   0   0   0   1  0  0
429 200000   0   0   0   0  0  0
430 101   0   0   0   0  0  1
431 5100   0   0   0   1  0  0
432 200000   0   0   0   0  0  0
433 101   0   0   0   0  0  1
434 5100   0   0   0   1  0  0
435 200000   0   0   0   0  0  0
436 101   0   0   0   0  0  1
437 5100   0   0   0   1  0  0
438 200000   0   0   0   0  0  0
439 101   0   0   0   0  0  1
440 5100   0   0   0   1  0  0
441 200000   0   0   0   0  0  0
442 101   0   0   0   0  0  1
443 5100   0   0   0   1  0  0
444 200000   0   0   0   0  0  0
445 101   0   0   0   0  0  1
446 5100   0   0   0   1  0  0
447 200000   0   0   0   0  0  0
448 101   0   0   0   0  0  1
449 5100   0   0   0   1  0  0
450 200000   0   0   0   0  0  0
451   2   0   2   0   0  0  0

# Format of arbitrary gradients:
#   time_shape_id of 0 means default timing (stepping with grad_raster starting at 1/2 of grad_raster)
# id amplitude amp_shape_id time_shape_id delay
# ..      Hz/m       ..         ..          us
[GRADIENTS]
1  1.22751e+06 1 0 0
2            0 2 3 0

# Format of extension lists:
# id type ref next_id
# next_id of 0 terminates the list
# Extension list is followed by extension specifications
[EXTENSIONS]
1 1 1 0

# Extension specification for digital output and input triggers:
# id type channel delay (us) duration (us)
extension TRIGGERS 1
1 1 3 1000 10

# Sequence Shapes
[SHAPES]

shape_id 1
num_samples 5100
0
0
97
0.0046807
0.014042
0.0234034
0.0323691
0.0186234
0.018623
0.018622
0.0186208
0.0186187
0.0186158
0.0186119
0.0186066
0.0185998
0.0185912
0.0185805
0.0185671
0.0185511
0.0185318
0.018509
0.018482
0.0184507
0.0184144
0.0183727
0.0183251
0.0182711
0.01821
0.0181414
0.0180647
0.0179791
0.0178842
0.0177792
0.0176636
0.0175366
0.0173974
0.0172457
0.0170802
0.0169008
0.0167063
0.0164961
0.0162695
0.0160257
0.0157641
0.0154836
0.0151837
0.0148638
0.0145227
0.0141602
0.0137753
0.0133672
0.0129356
0.0124794
0.0119984
0.0114917
0.010959
0.0103995
0.0098129
0.0091988
0.0085569
0.0078866
0.0071878
0.0064606
0.0057043
0.0049195
0.0041058
0.0032635
0.0023928
0.0014941
0.0005678
-0.0003856
-0.0013654
-0.0023709
-0.003401
-0.004455
-0.0055314
-0.0066291
-0.0077466
-0.0088823
-0.0100345
-0.0112014
-0.0123807
-0.0135705
-0.0147682
-0.0159716
-0.0171777
-0.0183838
-0.0195871
-0.0207841
-0.021972
-0.0231469
-0.0243055
-0.0254441
-0.0265587
-0.0276456
-0.0287006
-0.0297195
-0.0306982
-0.0316322
-0.0325174
-0.0333491
-0.034123
-0.0348347
-0.0354797
-0.0360536
-0.036552
-0.0369707
-0.0373056
-0.0375524
-0.0377076
-0.0377671
-0.0377278
-0.0375862
-0.0373393
-0.0369845
-0.0365195
-0.0359422
-0.0352511
-0.0344449
-0.033523
-0.0324851
-0.0313313
-0.0300626
-0.0286803
-0.0271863
-0.025583
-0.0238737
-0.0220621
-0.0201528
-0.0181507
-0.0160615
-0.013892
-0.0116488
-0.00934
-0.0069739
-0.0045596
-0.0021067
0.0003746
0.0028735
0.0053785
0.0078781
0.0103597
0.0128111
0.0152191
0.0175707
0.0198526
0.0220512
0.0241531
0.0261452
0.028014
0.0297466
0.0313305
0.0327536
0.0340042
0.0350717
0.0359457
0.0366172
0.0370778
0.0373205
0.0373394
0.0371299
0.0366885
0.0360138
0.0351054
0.0339646
0.0325947
0.0310005
0.0291884
0.027167
0.0249464
0.0225385
0.0199573
0.0172181
0.0143381
0.0113363
0.0082328
0.0050495
0.0018094
-0.0014633
-0.0047435
-0.0080053
-0.0112219
-0.0143666
-0.0174123
-0.0203318
-0.0230985
-0.0256864
-0.0280701
-0.0302255
-0.03213
-0.0337625
-0.0351038
-0.0361372
-0.036848
-0.0372245
-0.037258
-0.0369424
-0.0362754
-0.0352579
-0.0338942
-0.0321925
-0.0301643
-0.0278252
-0.0251939
-0.0222931
-0.0191487
-0.01579
-0.0122491
-0.0085612
-0.0047637
-0.0008964
0.0029993
0.0068808
0.0107042
0.0144256
0.0180009
0.0213873
0.0245422
0.0274256
0.0299996
0.0322288
0.0340819
0.0355307
0.036552
0.0371274
0.0372434
0.0368921
0.0360721
0.0347871
0.0330479
0.0308708
0.028279
0.0253011
0.0219724
0.0183329
0.0144287
0.0103097
0.0060305
0.001649
-0.0027742
-0.0071766
-0.0114948
-0.0156652
-0.0196247
-0.0233125
-0.0266706
-0.0296442
-0.032184
-0.0342458
-0.0357919
-0.0367924
-0.0372247
-0.0370753
-0.0363396
-0.0350219
-0.0331369
-0.030708
-0.0277688
-0.0243615
-0.0205372
-0.0163551
-0.0118816
-0.0071893
-0.0023563
0.0025359
0.0074025
0.0121581
0.0167173
0.0209966
0.0249163
0.0284013
0.0313833
0.0338019
0.0356063
0.0367557
0.0372217
0.0369877
0.0360504
0.0344202
0.0321209
0.0291899
0.025678
0.0216478
0.0171742
0.0123417
0.0072439
0.0019816
-0.0033397
-0.0086107
-0.013722
-0.0185649
-0.0230351
-0.0270339
-0.0304714
-0.0332677
-0.0353561
-0.0366838
-0.0372139
-0.0369265
-0.0358199
-0.0339103
-0.0312326
-0.0278397
-0.0238019
-0.0192053
-0.0141506
-0.0087508
-0.0031287
0.0025851
0.0082563
0.0137488
0.0189292
0.0236689
0.0278486
0.0313601
0.0341107
0.0360247
0.0370464
0.0371416
0.0362991
0.0345312
0.0318748
0.0283897
0.0241586
0.019285
0.0138906
0.0081132
0.0021029
-0.0039819
-0.0099782
-0.0157227
-0.0210568
-0.0258304
-0.029907
-0.0331672
-0.0355125
-0.0368689
-0.0371894
-0.0364554
-0.0346784
-0.0319005
-0.0281928
-0.0236551
-0.0184128
-0.0126139
-0.0064254
-2.78e-05
0.0063889
0.0126316
0.0185099
0.0238413
0.0284579
0.0322111
0.0349773
0.0366619
0.0372027
0.0365731
0.0347831
0.0318799
0.0279473
0.0231036
0.0174979
0.0113068
0.0047283
-0.0020238
-0.0087273
-0.0151582
-0.0210989
-0.0263451
-0.0307135
-0.0340479
-0.036226
-0.0371631
-0.0368169
-0.035189
-0.0323262
-0.0283193
-0.0233006
-0.0174408
-0.0109425
-0.0040344
0.0030375
0.0100174
0.0166498
0.0226886
0.0279064
0.0321031
0.0351146
0.0368186
0.0371408
0.0360585
0.0336019
0.0298545
0.0249504
0.0190704
0.0124353
0.0052985
-0.002064
-0.0093633
-0.0163098
-0.0226241
-0.0280487
-0.0323587
-0.0353715
-0.0369549
-0.0370338
-0.0355937
-0.0326828
-0.0284109
-0.0229459
-0.0165078
-0.0093602
-0.0018001
0.0058545
0.0132775
0.0201492
0.0261691
0.0310707
0.0346325
0.0366895
0.0371402
0.0359535
0.0331702
0.0289031
0.0233327
0.0167003
0.0092981
0.0014568
-0.0064689
-0.0141165
-0.0211318
-0.0271858
-0.0319907
-0.0353133
-0.0369876
-0.0369232
-0.0351112
-0.031626
-0.0266223
-0.0203301
-0.0130441
-0.00511
0.00309
0.0111574
0.018695
0.0253274
0.0307202
0.0345965
0.0367525
0.0370684
0.035516
0.0321616
0.0271638
0.0207674
0.0132913
0.0051139
-0.0033458
-0.0116497
-0.0193628
-0.0260768
-0.031431
-0.0351335
-0.0369764
-0.0368495
-0.034747
-0.0307691
-0.0251191
-0.0180931
-0.0100658
-0.0014702
0.007224
0.0155374
0.0230059
0.0292082
0.0337892
0.0364813
0.0371206
0.035658
0.0321636
0.0268245
0.0199354
0.0118838
0.0031284
-0.0058264
-0.0144595
-0.022263
-0.0287726
-0.0335962
-0.0364369
-0.0371137
-0.0355728
-0.0318934
-0.026284
-0.0190728
-0.0106883
-0.0016351
0.0075361
0.0162616
0.0240001
0.0302654
0.0346589
0.0368945
0.0368192
0.0344241
0.0298468
0.0233653
0.0153815
0.0063979
-0.0030141
-0.0122497
-0.0207093
-0.0278387
-0.0331643
-0.0363266
-0.0371051
-0.0354344
-0.0314114
-0.02529
-0.0174674
-0.0084586
0.0011366
0.0106729
0.0195028
0.0270207
0.0327051
0.0361555
0.0371214
0.0355219
0.0314536
0.0251862
0.0171457
0.0078868
-0.0019448
-0.0116568
-0.0205588
-0.0280116
-0.0334742
-0.0365431
-0.0369841
-0.0347505
-0.0299899
-0.0230354
-0.0143835
-0.0046603
0.0054236
0.0151243
0.0237196
0.0305631
0.0351337
0.0370757
0.036229
0.0326424
0.0265731
0.0184701
0.0089417
-0.0012891
-0.0114384
-0.0207218
-0.0284151
-0.0339111
-0.0367692
-0.0367513
-0.0338438
-0.0282607
-0.0204301
-0.0109627
-0.0006048
0.0098191
0.019472
0.0275721
0.0334559
0.0366343
0.0368344
0.0340245
0.0284193
0.020466
0.0108091
0.0002404
-0.010366
-0.0201249
-0.028215
-0.0339479
-0.0368282
-0.0365975
-0.03326
-0.0270838
-0.0185829
-0.0084742
0.0023802
0.0130467
0.0226003
0.0302049
0.0351873
0.0370983
0.0357549
0.0312591
0.0239927
0.0145867
0.0038674
-0.0072144
-0.0176676
-0.0265494
-0.0330511
-0.0365727
-0.0367797
-0.0336371
-0.0274159
-0.0186713
-0.0081954
0.0030531
0.0140368
0.0237337
0.0312341
0.0358259
0.0370644
0.034817
0.029279
0.0209592
0.0106352
-0.0007188
-0.0120214
-0.0221882
-0.0302349
-0.0353747
-0.0370956
-0.0352144
-0.0298974
-0.0216484
-0.0112632
0.0002465
0.0117491
0.0221056
0.0302814
0.0354514
0.0370847
0.035001
0.0293928
0.0208096
0.0101069
-0.0016383
-0.013234
-0.0234946
-0.031362
-0.0360162
-0.0369625
-0.0340858
-0.0276673
-0.0183593
-0.0071203
0.0048809
0.0163869
0.0261826
0.033225
0.0367546
0.0363804
0.0321244
0.024425
0.0140929
0.0022287
-0.0098932
-0.0209611
-0.0297678
-0.0353436
-0.037065
-0.0347258
-0.0285654
-0.0192464
-0.0077853
0.0045555
0.0164071
0.0264446
0.0335362
0.0368735
0.0360637
0.0311805
0.0227591
0.0117408
-0.0006305
-0.0129471
-0.0237971
-0.0319272
-0.0363887
-0.0366497
-0.0326619
-0.024871
-0.0141689
-0.0017951
0.0108064
0.022154
0.0309035
0.0360089
0.0368487
0.0333049
0.0257818
0.015163
0.00271
-0.0100862
-0.0216822
-0.0306691
-0.0359451
-0.0368521
-0.0332613
-0.0255933
-0.0147727
-0.0021187
0.0108138
0.0224245
0.0312662
0.0362264
0.0366696
0.0325217
0.0242845
0.0129786
1.89e-05
-0.0129602
-0.0243107
-0.0325808
-0.0367016
-0.0361287
-0.0309165
-0.0217172
-0.0097023
0.0035842
0.0164229
0.0271402
0.0343291
0.0370341
0.0348823
0.0281372
0.0176706
0.0048525
-0.008626
-0.0209741
-0.03054
-0.0360331
-0.0367005
-0.0324331
-0.0237868
-0.0119135
0.0015902
0.0148945
0.0261857
0.0339122
0.0370016
0.0350108
0.0281943
0.0174748
0.0043218
-0.009448
-0.0219193
-0.0313461
-0.0363971
-0.0363463
-0.031181
-0.0216103
-0.0089709
0.0049564
0.018196
0.0288577
0.0354074
0.0368908
0.033075
0.0244896
0.0123565
-0.0015807
-0.0153055
-0.0268188
-0.0344322
-0.0370164
-0.0341737
-0.0263012
-0.0145411
-0.000617
0.0134151
0.0254706
0.0337462
0.0369913
0.0347015
0.0271994
0.015595
0.0016236
-0.0126098
-0.0249479
-0.0335076
-0.0369701
-0.0347875
-0.0272731
-0.0155613
-0.0014401
0.0129202
0.0252979
0.0337657
0.0369924
0.0344554
0.0265305
0.0144395
6.62e-05
-0.0143339
-0.0264882
-0.0344647
-0.0369829
-0.0336227
-0.0248983
-0.0121846
0.0024958
0.0167922
0.0284012
0.0354397
0.0367522
0.0321055
0.0222335
0.0087267
-0.0062213
-0.0201673
-0.0308179
-0.0364086
-0.0359991
-0.0296356
-0.0183522
-0.0040062
0.0110231
0.0242286
0.0333933
0.0369653
0.034324
0.025893
0.0130767
-0.001969
-0.016697
-0.0285993
-0.035635
-0.0365839
-0.0312623
-0.0205626
-0.0063092
0.009049
0.022858
0.0327168
0.0368973
0.0346515
0.0263492
0.0134239
-0.0018719
-0.0168548
-0.0288816
-0.035816
-0.036412
-0.0305422
-0.0192292
-0.0044731
0.0110986
0.0246977
0.0338738
0.0369595
0.0333772
0.0237523
0.00981
-0.0059302
-0.0206067
-0.031536
-0.0367053
-0.0351469
-0.0271249
-0.0140958
0.0015504
0.0169261
0.0291774
0.0360153
0.0361474
0.0295269
0.0173706
0.0019419
-0.0138681
-0.0270801
-0.0351893
-0.036643
-0.0311435
-0.0197141
-0.0045143
0.0115638
0.0254437
0.0344543
0.0368461
0.0321364
0.0212122
0.0061687
-0.0100874
-0.0243977
-0.0339661
-0.0369074
-0.0326243
-0.021934
-0.0069186
0.0094759
0.0240148
0.0338133
0.036912
0.0326727
0.0219174
0.0067731
-0.0097422
-0.0243193
-0.0340213
-0.0368775
-0.0322894
-0.0211616
-0.0057309
0.0108801
0.0252912
0.0345532
0.036755
0.0314229
0.0196286
0.0037808
-0.0128628
-0.0268626
-0.0353084
-0.0364288
-0.0299676
-0.0172487
-0.0009119
0.015632
0.0289101
0.0361186
0.0357189
0.0277718
0.0139366
-0.0028691
-0.0190809
-0.0312423
-0.0367437
-0.0343876
-0.0246547
-0.0096143
0.0075111
0.0230318
0.0335863
0.0368722
0.0321534
0.0204327
0.0042447
-0.0128861
-0.0272111
-0.035578
-0.0361286
-0.0287179
-0.0149584
0.0021242
0.0187518
0.031228
0.0367623
0.0340988
0.0238084
0.0081741
-0.0093101
-0.0247159
-0.0345638
-0.0366126
-0.030375
-0.0172414
-0.0001766
0.0169441
0.0302133
0.0365848
0.034578
0.0246288
0.0090035
-0.0087123
-0.0244313
-0.0345083
-0.0365894
-0.0301669
-0.0167121
0.0006555
0.0178854
0.0309397
0.0367409
0.0339028
0.0230693
0.0067765
-0.0111351
-0.0264217
-0.0354428
-0.0360319
-0.0280243
-0.0133093
0.0046071
0.0214336
0.03312
0.0368351
0.0316589
0.0188183
0.0014042
-0.0163663
-0.0301692
-0.0366268
-0.0341403
-0.023293
-0.0067219
0.0115158
0.0269334
0.0357183
0.0356795
0.0268018
0.0112635
-0.0070894
-0.0236917
-0.0343932
-0.0365001
-0.0294602
-0.0150155
0.0032197
0.020659
0.0328949
0.0368157
0.0314044
0.0180093
1.85e-05
-0.0179926
-0.0314211
-0.0368161
-0.0327715
-0.0203004
-0.0025911
0.0158018
0.0301254
0.0366588
0.0336851
0.0219513
0.0044896
-0.0141585
-0.0291201
-0.0364656
-0.0342463
-0.0230193
-0.0057182
0.0131069
0.0284812
0.036322
0.034527
0.0235475
0.0062844
-0.0126709
-0.0282528
-0.0362765
-0.0345675
-0.0235593
-0.0061931
0.0128595
0.0284493
0.0363422
0.0343746
0.0230553
0.0054439
-0.0136684
-0.0290574
-0.0364962
-0.0339213
-0.0220141
-0.0040311
0.0150795
0.0300348
0.0366797
0.0331478
0.0203941
0.0019478
-0.0170569
-0.0313071
-0.0367975
-0.0319643
-0.0181391
0.000807
0.0195404
0.032764
0.0367179
0.0302556
0.0151871
-0.0042186
-0.022436
-0.0342549
-0.0362743
-0.0278892
-0.0114825
0.008243
0.0256065
0.0355847
0.0352701
0.0247272
0.0069927
-0.0127909
-0.0288607
-0.0365134
-0.0334881
-0.0206443
-0.0017284
0.0177108
0.0319455
0.0367602
0.0307068
0.015551
-0.0042321
-0.0227721
-0.0345435
-0.0360165
-0.0267249
-0.0094236
0.0107179
0.0276539
0.0362781
0.0339688
0.0213959
0.0023385
-0.0174424
-0.0319411
-0.0367335
-0.030335
-0.0146705
0.0054924
0.0239878
0.0351354
0.0354898
0.0249148
0.0066458
-0.0136908
-0.0298043
-0.0366871
-0.0321783
-0.0176526
0.0023867
0.0216956
0.0342323
0.0360518
0.0265566
0.0087041
-0.011903
-0.0287698
-0.0365563
-0.032775
-0.0185968
0.0014998
0.0211336
0.0340453
0.0360952
0.0266013
0.0085772
-0.0122128
-0.0290915
-0.0366139
-0.0323304
-0.0175965
0.0028436
0.0223767
0.0346562
0.0356698
0.02506
0.006262
-0.0145969
-0.0306899
-0.0367255
-0.030696
-0.0145574
0.006393
0.0252467
0.035761
0.0344315
0.0216711
0.0016959
-0.0188585
-0.0331357
-0.0363497
-0.0273985
-0.0092543
0.0120107
0.0292501
0.0366454
0.0316771
0.0159957
-0.0051134
-0.0245029
-0.0355807
-0.0345572
-0.021753
-0.0015123
0.0192597
0.0334483
0.0361694
0.0264611
0.0076365
-0.0138344
-0.0305418
-0.0366946
-0.0301363
-0.0131135
0.0084799
0.0271352
0.0363391
0.0328538
0.0178702
-0.0033872
-0.0234699
-0.0353136
-0.0347281
-0.0218912
-0.0013106
0.0197477
0.0338202
0.0358942
0.025205
0.0055305
-0.0161302
-0.0320416
-0.0364955
-0.0278691
-0.0092303
0.0127408
0.0301369
0.0366718
0.029959
0.0123983
-0.0096687
-0.0282396
-0.0365529
-0.0315573
-0.0150452
0.0069755
0.0264577
0.0362542
0.0327465
0.0171946
-0.0047006
-0.024876
-0.0358737
-0.0336033
-0.0188765
0.0028671
0.023559
0.0354912
0.0341939
0.0201222
-0.0014872
-0.0225534
-0.0351685
-0.0345718
-0.0209589
0.0005661
0.021891
0.0349494
0.0347759
0.0214072
-0.0001051
-0.0215913
-0.0348607
-0.034829
-0.0214794
0.0001048
0.0216624
0.0349122
0.0347378
0.0211774
-0.0005647
-0.0221022
-0.0350972
-0.0344925
-0.0204936
0.0014844
0.0228979
0.0353925
0.0340671
0.0194106
-0.0028618
-0.0240251
-0.0357575
-0.03342
-0.0179041
0.0046916
0.0254459
0.0361343
0.0324954
0.0159442
-0.0069613
-0.0271069
-0.0364467
-0.0312248
-0.0135003
0.0096473
0.0289358
0.0366006
0.0295305
0.0105459
-0.0127102
-0.0308387
-0.0364844
-0.0273301
-0.0070646
0.0160882
0.0326981
0.0359714
0.0245421
0.0030586
-0.0196921
-0.0343706
-0.0349238
-0.0210947
0.0014434
0.0233986
0.0356878
0.0331995
0.0169354
-0.0063753
-0.0270469
-0.0364594
-0.0306613
-0.0120442
0.0116253
0.0304356
0.0364798
0.0271905
0.0064471
-0.0170268
-0.0333247
-0.0355391
-0.0227034
-0.000231
0.0223529
0.0354416
0.03344
0.0171714
-0.0064431
-0.0273145
-0.0364945
-0.0300201
-0.0106415
0.0133278
0.0315671
0.0361929
0.0251782
0.0032591
-0.0200855
-0.0347245
-0.0342767
-0.0189066
0.004715
0.0262916
0.0363854
0.0305535
0.0113214
-0.012893
-0.0314518
-0.0361708
-0.0249416
-0.0026911
0.0207621
0.0350334
0.0337749
0.0175148
-0.0065447
-0.0277027
-0.036516
-0.0290235
-0.0085444
0.0157738
0.0330297
0.035458
0.021937
-0.0014738
-0.0242328
-0.0360571
-0.0315763
-0.0127879
0.0118122
0.0310598
0.0361875
0.0248319
0.0021413
-0.0215402
-0.0353801
-0.0330187
-0.0155078
0.0091373
0.0295922
0.0364252
0.0264574
0.0042612
-0.0199185
-0.0348836
-0.0336739
-0.01682
0.0078677
0.0289037
0.0364677
0.0270003
0.0048976
-0.0195114
-0.0347811
-0.0337215
-0.0167997
0.0080441
0.0291072
0.0364337
0.0265323
0.0040595
-0.0203506
-0.0351089
-0.0331785
-0.0154469
0.0096601
0.0301677
0.0362608
0.0249946
0.0017382
-0.0223652
-0.0357283
-0.0318977
-0.0126874
0.0126578
0.0318975
0.0357071
0.0222109
-0.0020726
-0.0253617
-0.0363197
-0.0295834
-0.008407
0.0168886
0.0339334
0.0343607
0.0179296
-0.0073185
