# Pulseq sequence file
# Created by MATLAB mr toolbox

[VERSION]
major 1
minor 4
revision 0

[DEFINITIONS]
AdcRasterTime 1e-07 
BlockDurationRaster 1e-05 
CameraAcqDuration 0.05 
CameraAqDelay 0 
CameraInterleaveTR 0.4 
CameraNrDynamics 300 
CameraNrSyncDynamics 0 
GradientRasterTime 1e-05 
Name gtf 
RadiofrequencyRasterTime 1e-06 

# Format of blocks:
# NUM DUR RF  GX  GY  GZ  ADC  EXT
[BLOCKS]
   1   1   0   0   0   0  0  1
   2 99999   0   0   0   0  0  0
   3   1   0   0   0   0  0  1
   4 99999   0   0   0   0  0  0
   5   1   0   0   0   0  0  1
   6 99999   0   0   0   0  0  0
   7   1   0   0   0   0  0  1
   8 99999   0   0   0   0  0  0
   9   1   0   0   0   0  0  1
  10 99999   0   0   0   0  0  0
  11   1   0   0   0   0  0  1
  12 200   0   0   0   0  0  0
  13   2   0   1   0   0  0  0
  14 99797   0   0   0   0  0  0
  15   1   0   0   0   0  0  1
  16 200   0   0   0   0  0  0
  17   2   0   1   0   0  0  0
  18 99797   0   0   0   0  0  0
  19   1   0   0   0   0  0  1
  20 200   0   0   0   0  0  0
  21   2   0   1   0   0  0  0
  22 99797   0   0   0   0  0  0
  23   1   0   0   0   0  0  1
  24 200   0   0   0   0  0  0
  25   2   0   1   0   0  0  0
  26 99797   0   0   0   0  0  0
  27   1   0   0   0   0  0  1
  28 200   0   0   0   0  0  0
  29   2   0   1   0   0  0  0
  30 99797   0   0   0   0  0  0
  31   1   0   0   0   0  0  1
  32 200   0   0   0   0  0  0
  33   4   0   2   0   0  0  0
  34 99795   0   0   0   0  0  0
  35   1   0   0   0   0  0  1
  36 200   0   0   0   0  0  0
  37   4   0   2   0   0  0  0
  38 99795   0   0   0   0  0  0
  39   1   0   0   0   0  0  1
  40 200   0   0   0   0  0  0
  41   4   0   2   0   0  0  0
  42 99795   0   0   0   0  0  0
  43   1   0   0   0   0  0  1
  44 200   0   0   0   0  0  0
  45   4   0   2   0   0  0  0
  46 99795   0   0   0   0  0  0
  47   1   0   0   0   0  0  1
  48 200   0   0   0   0  0  0
  49   4   0   2   0   0  0  0
  50 99795   0   0   0   0  0  0
  51   1   0   0   0   0  0  1
  52 200   0   0   0   0  0  0
  53   6   0   3   0   0  0  0
  54 99793   0   0   0   0  0  0
  55   1   0   0   0   0  0  1
  56 200   0   0   0   0  0  0
  57   6   0   3   0   0  0  0
  58 99793   0   0   0   0  0  0
  59   1   0   0   0   0  0  1
  60 200   0   0   0   0  0  0
  61   6   0   3   0   0  0  0
  62 99793   0   0   0   0  0  0
  63   1   0   0   0   0  0  1
  64 200   0   0   0   0  0  0
  65   6   0   3   0   0  0  0
  66 99793   0   0   0   0  0  0
  67   1   0   0   0   0  0  1
  68 200   0   0   0   0  0  0
  69   6   0   3   0   0  0  0
  70 99793   0   0   0   0  0  0
  71   1   0   0   0   0  0  1
  72 200   0   0   0   0  0  0
  73   8   0   4   0   0  0  0
  74 99791   0   0   0   0  0  0
  75   1   0   0   0   0  0  1
  76 200   0   0   0   0  0  0
  77   8   0   4   0   0  0  0
  78 99791   0   0   0   0  0  0
  79   1   0   0   0   0  0  1
  80 200   0   0   0   0  0  0
  81   8   0   4   0   0  0  0
  82 99791   0   0   0   0  0  0
  83   1   0   0   0   0  0  1
  84 200   0   0   0   0  0  0
  85   8   0   4   0   0  0  0
  86 99791   0   0   0   0  0  0
  87   1   0   0   0   0  0  1
  88 200   0   0   0   0  0  0
  89   8   0   4   0   0  0  0
  90 99791   0   0   0   0  0  0
  91   1   0   0   0   0  0  1
  92 200   0   0   0   0  0  0
  93  10   0   5   0   0  0  0
  94 99789   0   0   0   0  0  0
  95   1   0   0   0   0  0  1
  96 200   0   0   0   0  0  0
  97  10   0   5   0   0  0  0
  98 99789   0   0   0   0  0  0
  99   1   0   0   0   0  0  1
 100 200   0   0   0   0  0  0
 101  10   0   5   0   0  0  0
 102 99789   0   0   0   0  0  0
 103   1   0   0   0   0  0  1
 104 200   0   0   0   0  0  0
 105  10   0   5   0   0  0  0
 106 99789   0   0   0   0  0  0
 107   1   0   0   0   0  0  1
 108 200   0   0   0   0  0  0
 109  10   0   5   0   0  0  0
 110 99789   0   0   0   0  0  0
 111   1   0   0   0   0  0  1
 112 200   0   0   0   0  0  0
 113  12   0   6   0   0  0  0
 114 99787   0   0   0   0  0  0
 115   1   0   0   0   0  0  1
 116 200   0   0   0   0  0  0
 117  12   0   6   0   0  0  0
 118 99787   0   0   0   0  0  0
 119   1   0   0   0   0  0  1
 120 200   0   0   0   0  0  0
 121  12   0   6   0   0  0  0
 122 99787   0   0   0   0  0  0
 123   1   0   0   0   0  0  1
 124 200   0   0   0   0  0  0
 125  12   0   6   0   0  0  0
 126 99787   0   0   0   0  0  0
 127   1   0   0   0   0  0  1
 128 200   0   0   0   0  0  0
 129  12   0   6   0   0  0  0
 130 99787   0   0   0   0  0  0
 131   1   0   0   0   0  0  1
 132 200   0   0   0   0  0  0
 133  14   0   7   0   0  0  0
 134 99785   0   0   0   0  0  0
 135   1   0   0   0   0  0  1
 136 200   0   0   0   0  0  0
 137  14   0   7   0   0  0  0
 138 99785   0   0   0   0  0  0
 139   1   0   0   0   0  0  1
 140 200   0   0   0   0  0  0
 141  14   0   7   0   0  0  0
 142 99785   0   0   0   0  0  0
 143   1   0   0   0   0  0  1
 144 200   0   0   0   0  0  0
 145  14   0   7   0   0  0  0
 146 99785   0   0   0   0  0  0
 147   1   0   0   0   0  0  1
 148 200   0   0   0   0  0  0
 149  14   0   7   0   0  0  0
 150 99785   0   0   0   0  0  0
 151   1   0   0   0   0  0  1
 152 200   0   0   0   0  0  0
 153  16   0   8   0   0  0  0
 154 99783   0   0   0   0  0  0
 155   1   0   0   0   0  0  1
 156 200   0   0   0   0  0  0
 157  16   0   8   0   0  0  0
 158 99783   0   0   0   0  0  0
 159   1   0   0   0   0  0  1
 160 200   0   0   0   0  0  0
 161  16   0   8   0   0  0  0
 162 99783   0   0   0   0  0  0
 163   1   0   0   0   0  0  1
 164 200   0   0   0   0  0  0
 165  16   0   8   0   0  0  0
 166 99783   0   0   0   0  0  0
 167   1   0   0   0   0  0  1
 168 200   0   0   0   0  0  0
 169  16   0   8   0   0  0  0
 170 99783   0   0   0   0  0  0
 171   1   0   0   0   0  0  1
 172 200   0   0   0   0  0  0
 173  18   0   9   0   0  0  0
 174 99781   0   0   0   0  0  0
 175   1   0   0   0   0  0  1
 176 200   0   0   0   0  0  0
 177  18   0   9   0   0  0  0
 178 99781   0   0   0   0  0  0
 179   1   0   0   0   0  0  1
 180 200   0   0   0   0  0  0
 181  18   0   9   0   0  0  0
 182 99781   0   0   0   0  0  0
 183   1   0   0   0   0  0  1
 184 200   0   0   0   0  0  0
 185  18   0   9   0   0  0  0
 186 99781   0   0   0   0  0  0
 187   1   0   0   0   0  0  1
 188 200   0   0   0   0  0  0
 189  18   0   9   0   0  0  0
 190 99781   0   0   0   0  0  0
 191   1   0   0   0   0  0  1
 192 200   0   0   0   0  0  0
 193  20   0  10   0   0  0  0
 194 99779   0   0   0   0  0  0
 195   1   0   0   0   0  0  1
 196 200   0   0   0   0  0  0
 197  20   0  10   0   0  0  0
 198 99779   0   0   0   0  0  0
 199   1   0   0   0   0  0  1
 200 200   0   0   0   0  0  0
 201  20   0  10   0   0  0  0
 202 99779   0   0   0   0  0  0
 203   1   0   0   0   0  0  1
 204 200   0   0   0   0  0  0
 205  20   0  10   0   0  0  0
 206 99779   0   0   0   0  0  0
 207   1   0   0   0   0  0  1
 208 200   0   0   0   0  0  0
 209  20   0  10   0   0  0  0
 210 99779   0   0   0   0  0  0
 211   1   0   0   0   0  0  1
 212 200   0   0   0   0  0  0
 213  22   0  11   0   0  0  0
 214 99777   0   0   0   0  0  0
 215   1   0   0   0   0  0  1
 216 200   0   0   0   0  0  0
 217  22   0  11   0   0  0  0
 218 99777   0   0   0   0  0  0
 219   1   0   0   0   0  0  1
 220 200   0   0   0   0  0  0
 221  22   0  11   0   0  0  0
 222 99777   0   0   0   0  0  0
 223   1   0   0   0   0  0  1
 224 200   0   0   0   0  0  0
 225  22   0  11   0   0  0  0
 226 99777   0   0   0   0  0  0
 227   1   0   0   0   0  0  1
 228 200   0   0   0   0  0  0
 229  22   0  11   0   0  0  0
 230 99777   0   0   0   0  0  0
 231   1   0   0   0   0  0  1
 232 200   0   0   0   0  0  0
 233  24   0  12   0   0  0  0
 234 99775   0   0   0   0  0  0
 235   1   0   0   0   0  0  1
 236 200   0   0   0   0  0  0
 237  24   0  12   0   0  0  0
 238 99775   0   0   0   0  0  0
 239   1   0   0   0   0  0  1
 240 200   0   0   0   0  0  0
 241  24   0  12   0   0  0  0
 242 99775   0   0   0   0  0  0
 243   1   0   0   0   0  0  1
 244 200   0   0   0   0  0  0
 245  24   0  12   0   0  0  0
 246 99775   0   0   0   0  0  0
 247   1   0   0   0   0  0  1
 248 200   0   0   0   0  0  0
 249  24   0  12   0   0  0  0
 250 99775   0   0   0   0  0  0
 251   1   0   0   0   0  0  1
 252 200   0   0   0   0  0  0
 253  26   0  13   0   0  0  0
 254 99773   0   0   0   0  0  0
 255   1   0   0   0   0  0  1
 256 200   0   0   0   0  0  0
 257  26   0  13   0   0  0  0
 258 99773   0   0   0   0  0  0
 259   1   0   0   0   0  0  1
 260 200   0   0   0   0  0  0
 261  26   0  13   0   0  0  0
 262 99773   0   0   0   0  0  0
 263   1   0   0   0   0  0  1
 264 200   0   0   0   0  0  0
 265  26   0  13   0   0  0  0
 266 99773   0   0   0   0  0  0
 267   1   0   0   0   0  0  1
 268 200   0   0   0   0  0  0
 269  26   0  13   0   0  0  0
 270 99773   0   0   0   0  0  0
 271   1   0   0   0   0  0  1
 272 200   0   0   0   0  0  0
 273  28   0  14   0   0  0  0
 274 99771   0   0   0   0  0  0
 275   1   0   0   0   0  0  1
 276 200   0   0   0   0  0  0
 277  28   0  14   0   0  0  0
 278 99771   0   0   0   0  0  0
 279   1   0   0   0   0  0  1
 280 200   0   0   0   0  0  0
 281  28   0  14   0   0  0  0
 282 99771   0   0   0   0  0  0
 283   1   0   0   0   0  0  1
 284 200   0   0   0   0  0  0
 285  28   0  14   0   0  0  0
 286 99771   0   0   0   0  0  0
 287   1   0   0   0   0  0  1
 288 200   0   0   0   0  0  0
 289  28   0  14   0   0  0  0
 290 99771   0   0   0   0  0  0
 291   1   0   0   0   0  0  1
 292 200   0   0   0   0  0  0
 293  30   0  15   0   0  0  0
 294 99769   0   0   0   0  0  0
 295   1   0   0   0   0  0  1
 296 200   0   0   0   0  0  0
 297  30   0  15   0   0  0  0
 298 99769   0   0   0   0  0  0
 299   1   0   0   0   0  0  1
 300 200   0   0   0   0  0  0
 301  30   0  15   0   0  0  0
 302 99769   0   0   0   0  0  0
 303   1   0   0   0   0  0  1
 304 200   0   0   0   0  0  0
 305  30   0  15   0   0  0  0
 306 99769   0   0   0   0  0  0
 307   1   0   0   0   0  0  1
 308 200   0   0   0   0  0  0
 309  30   0  15   0   0  0  0
 310 99769   0   0   0   0  0  0
 311   1   0   0   0   0  0  1
 312 200   0   0   0   0  0  0
 313  32   0  16   0   0  0  0
 314 99767   0   0   0   0  0  0
 315   1   0   0   0   0  0  1
 316 200   0   0   0   0  0  0
 317  32   0  16   0   0  0  0
 318 99767   0   0   0   0  0  0
 319   1   0   0   0   0  0  1
 320 200   0   0   0   0  0  0
 321  32   0  16   0   0  0  0
 322 99767   0   0   0   0  0  0
 323   1   0   0   0   0  0  1
 324 200   0   0   0   0  0  0
 325  32   0  16   0   0  0  0
 326 99767   0   0   0   0  0  0
 327   1   0   0   0   0  0  1
 328 200   0   0   0   0  0  0
 329  32   0  16   0   0  0  0
 330 99767   0   0   0   0  0  0
 331   1   0   0   0   0  0  1
 332 200   0   0   0   0  0  0
 333  34   0  17   0   0  0  0
 334 99765   0   0   0   0  0  0
 335   1   0   0   0   0  0  1
 336 200   0   0   0   0  0  0
 337  34   0  17   0   0  0  0
 338 99765   0   0   0   0  0  0
 339   1   0   0   0   0  0  1
 340 200   0   0   0   0  0  0
 341  34   0  17   0   0  0  0
 342 99765   0   0   0   0  0  0
 343   1   0   0   0   0  0  1
 344 200   0   0   0   0  0  0
 345  34   0  17   0   0  0  0
 346 99765   0   0   0   0  0  0
 347   1   0   0   0   0  0  1
 348 200   0   0   0   0  0  0
 349  34   0  17   0   0  0  0
 350 99765   0   0   0   0  0  0
 351   1   0   0   0   0  0  1
 352 200   0   0   0   0  0  0
 353  36   0  18   0   0  0  0
 354 99763   0   0   0   0  0  0
 355   1   0   0   0   0  0  1
 356 200   0   0   0   0  0  0
 357  36   0  18   0   0  0  0
 358 99763   0   0   0   0  0  0
 359   1   0   0   0   0  0  1
 360 200   0   0   0   0  0  0
 361  36   0  18   0   0  0  0
 362 99763   0   0   0   0  0  0
 363   1   0   0   0   0  0  1
 364 200   0   0   0   0  0  0
 365  36   0  18   0   0  0  0
 366 99763   0   0   0   0  0  0
 367   1   0   0   0   0  0  1
 368 200   0   0   0   0  0  0
 369  36   0  18   0   0  0  0
 370 99763   0   0   0   0  0  0
 371   1   0   0   0   0  0  1
 372 200   0   0   0   0  0  0
 373  38   0  19   0   0  0  0
 374 99761   0   0   0   0  0  0
 375   1   0   0   0   0  0  1
 376 200   0   0   0   0  0  0
 377  38   0  19   0   0  0  0
 378 99761   0   0   0   0  0  0
 379   1   0   0   0   0  0  1
 380 200   0   0   0   0  0  0
 381  38   0  19   0   0  0  0
 382 99761   0   0   0   0  0  0
 383   1   0   0   0   0  0  1
 384 200   0   0   0   0  0  0
 385  38   0  19   0   0  0  0
 386 99761   0   0   0   0  0  0
 387   1   0   0   0   0  0  1
 388 200   0   0   0   0  0  0
 389  38   0  19   0   0  0  0
 390 99761   0   0   0   0  0  0
 391   1   0   0   0   0  0  1
 392 99999   0   0   0   0  0  0
 393   1   0   0   0   0  0  1
 394 99999   0   0   0   0  0  0
 395   1   0   0   0   0  0  1
 396 99999   0   0   0   0  0  0
 397   1   0   0   0   0  0  1
 398 99999   0   0   0   0  0  0
 399   1   0   0   0   0  0  1
 400 99999   0   0   0   0  0  0
 401   1   0   0   0   0  0  1
 402 200   0   0   0   0  0  0
 403   2   0   0  20   0  0  0
 404 99797   0   0   0   0  0  0
 405   1   0   0   0   0  0  1
 406 200   0   0   0   0  0  0
 407   2   0   0  20   0  0  0
 408 99797   0   0   0   0  0  0
 409   1   0   0   0   0  0  1
 410 200   0   0   0   0  0  0
 411   2   0   0  20   0  0  0
 412 99797   0   0   0   0  0  0
 413   1   0   0   0   0  0  1
 414 200   0   0   0   0  0  0
 415   2   0   0  20   0  0  0
 416 99797   0   0   0   0  0  0
 417   1   0   0   0   0  0  1
 418 200   0   0   0   0  0  0
 419   2   0   0  20   0  0  0
 420 99797   0   0   0   0  0  0
 421   1   0   0   0   0  0  1
 422 200   0   0   0   0  0  0
 423   4   0   0  21   0  0  0
 424 99795   0   0   0   0  0  0
 425   1   0   0   0   0  0  1
 426 200   0   0   0   0  0  0
 427   4   0   0  21   0  0  0
 428 99795   0   0   0   0  0  0
 429   1   0   0   0   0  0  1
 430 200   0   0   0   0  0  0
 431   4   0   0  21   0  0  0
 432 99795   0   0   0   0  0  0
 433   1   0   0   0   0  0  1
 434 200   0   0   0   0  0  0
 435   4   0   0  21   0  0  0
 436 99795   0   0   0   0  0  0
 437   1   0   0   0   0  0  1
 438 200   0   0   0   0  0  0
 439   4   0   0  21   0  0  0
 440 99795   0   0   0   0  0  0
 441   1   0   0   0   0  0  1
 442 200   0   0   0   0  0  0
 443   6   0   0  22   0  0  0
 444 99793   0   0   0   0  0  0
 445   1   0   0   0   0  0  1
 446 200   0   0   0   0  0  0
 447   6   0   0  22   0  0  0
 448 99793   0   0   0   0  0  0
 449   1   0   0   0   0  0  1
 450 200   0   0   0   0  0  0
 451   6   0   0  22   0  0  0
 452 99793   0   0   0   0  0  0
 453   1   0   0   0   0  0  1
 454 200   0   0   0   0  0  0
 455   6   0   0  22   0  0  0
 456 99793   0   0   0   0  0  0
 457   1   0   0   0   0  0  1
 458 200   0   0   0   0  0  0
 459   6   0   0  22   0  0  0
 460 99793   0   0   0   0  0  0
 461   1   0   0   0   0  0  1
 462 200   0   0   0   0  0  0
 463   8   0   0  23   0  0  0
 464 99791   0   0   0   0  0  0
 465   1   0   0   0   0  0  1
 466 200   0   0   0   0  0  0
 467   8   0   0  23   0  0  0
 468 99791   0   0   0   0  0  0
 469   1   0   0   0   0  0  1
 470 200   0   0   0   0  0  0
 471   8   0   0  23   0  0  0
 472 99791   0   0   0   0  0  0
 473   1   0   0   0   0  0  1
 474 200   0   0   0   0  0  0
 475   8   0   0  23   0  0  0
 476 99791   0   0   0   0  0  0
 477   1   0   0   0   0  0  1
 478 200   0   0   0   0  0  0
 479   8   0   0  23   0  0  0
 480 99791   0   0   0   0  0  0
 481   1   0   0   0   0  0  1
 482 200   0   0   0   0  0  0
 483  10   0   0  24   0  0  0
 484 99789   0   0   0   0  0  0
 485   1   0   0   0   0  0  1
 486 200   0   0   0   0  0  0
 487  10   0   0  24   0  0  0
 488 99789   0   0   0   0  0  0
 489   1   0   0   0   0  0  1
 490 200   0   0   0   0  0  0
 491  10   0   0  24   0  0  0
 492 99789   0   0   0   0  0  0
 493   1   0   0   0   0  0  1
 494 200   0   0   0   0  0  0
 495  10   0   0  24   0  0  0
 496 99789   0   0   0   0  0  0
 497   1   0   0   0   0  0  1
 498 200   0   0   0   0  0  0
 499  10   0   0  24   0  0  0
 500 99789   0   0   0   0  0  0
 501   1   0   0   0   0  0  1
 502 200   0   0   0   0  0  0
 503  12   0   0  25   0  0  0
 504 99787   0   0   0   0  0  0
 505   1   0   0   0   0  0  1
 506 200   0   0   0   0  0  0
 507  12   0   0  25   0  0  0
 508 99787   0   0   0   0  0  0
 509   1   0   0   0   0  0  1
 510 200   0   0   0   0  0  0
 511  12   0   0  25   0  0  0
 512 99787   0   0   0   0  0  0
 513   1   0   0   0   0  0  1
 514 200   0   0   0   0  0  0
 515  12   0   0  25   0  0  0
 516 99787   0   0   0   0  0  0
 517   1   0   0   0   0  0  1
 518 200   0   0   0   0  0  0
 519  12   0   0  25   0  0  0
 520 99787   0   0   0   0  0  0
 521   1   0   0   0   0  0  1
 522 200   0   0   0   0  0  0
 523  14   0   0  26   0  0  0
 524 99785   0   0   0   0  0  0
 525   1   0   0   0   0  0  1
 526 200   0   0   0   0  0  0
 527  14   0   0  26   0  0  0
 528 99785   0   0   0   0  0  0
 529   1   0   0   0   0  0  1
 530 200   0   0   0   0  0  0
 531  14   0   0  26   0  0  0
 532 99785   0   0   0   0  0  0
 533   1   0   0   0   0  0  1
 534 200   0   0   0   0  0  0
 535  14   0   0  26   0  0  0
 536 99785   0   0   0   0  0  0
 537   1   0   0   0   0  0  1
 538 200   0   0   0   0  0  0
 539  14   0   0  26   0  0  0
 540 99785   0   0   0   0  0  0
 541   1   0   0   0   0  0  1
 542 200   0   0   0   0  0  0
 543  16   0   0  27   0  0  0
 544 99783   0   0   0   0  0  0
 545   1   0   0   0   0  0  1
 546 200   0   0   0   0  0  0
 547  16   0   0  27   0  0  0
 548 99783   0   0   0   0  0  0
 549   1   0   0   0   0  0  1
 550 200   0   0   0   0  0  0
 551  16   0   0  27   0  0  0
 552 99783   0   0   0   0  0  0
 553   1   0   0   0   0  0  1
 554 200   0   0   0   0  0  0
 555  16   0   0  27   0  0  0
 556 99783   0   0   0   0  0  0
 557   1   0   0   0   0  0  1
 558 200   0   0   0   0  0  0
 559  16   0   0  27   0  0  0
 560 99783   0   0   0   0  0  0
 561   1   0   0   0   0  0  1
 562 200   0   0   0   0  0  0
 563  18   0   0  28   0  0  0
 564 99781   0   0   0   0  0  0
 565   1   0   0   0   0  0  1
 566 200   0   0   0   0  0  0
 567  18   0   0  28   0  0  0
 568 99781   0   0   0   0  0  0
 569   1   0   0   0   0  0  1
 570 200   0   0   0   0  0  0
 571  18   0   0  28   0  0  0
 572 99781   0   0   0   0  0  0
 573   1   0   0   0   0  0  1
 574 200   0   0   0   0  0  0
 575  18   0   0  28   0  0  0
 576 99781   0   0   0   0  0  0
 577   1   0   0   0   0  0  1
 578 200   0   0   0   0  0  0
 579  18   0   0  28   0  0  0
 580 99781   0   0   0   0  0  0
 581   1   0   0   0   0  0  1
 582 200   0   0   0   0  0  0
 583  20   0   0  29   0  0  0
 584 99779   0   0   0   0  0  0
 585   1   0   0   0   0  0  1
 586 200   0   0   0   0  0  0
 587  20   0   0  29   0  0  0
 588 99779   0   0   0   0  0  0
 589   1   0   0   0   0  0  1
 590 200   0   0   0   0  0  0
 591  20   0   0  29   0  0  0
 592 99779   0   0   0   0  0  0
 593   1   0   0   0   0  0  1
 594 200   0   0   0   0  0  0
 595  20   0   0  29   0  0  0
 596 99779   0   0   0   0  0  0
 597   1   0   0   0   0  0  1
 598 200   0   0   0   0  0  0
 599  20   0   0  29   0  0  0
 600 99779   0   0   0   0  0  0
 601   1   0   0   0   0  0  1
 602 200   0   0   0   0  0  0
 603  22   0   0  30   0  0  0
 604 99777   0   0   0   0  0  0
 605   1   0   0   0   0  0  1
 606 200   0   0   0   0  0  0
 607  22   0   0  30   0  0  0
 608 99777   0   0   0   0  0  0
 609   1   0   0   0   0  0  1
 610 200   0   0   0   0  0  0
 611  22   0   0  30   0  0  0
 612 99777   0   0   0   0  0  0
 613   1   0   0   0   0  0  1
 614 200   0   0   0   0  0  0
 615  22   0   0  30   0  0  0
 616 99777   0   0   0   0  0  0
 617   1   0   0   0   0  0  1
 618 200   0   0   0   0  0  0
 619  22   0   0  30   0  0  0
 620 99777   0   0   0   0  0  0
 621   1   0   0   0   0  0  1
 622 200   0   0   0   0  0  0
 623  24   0   0  31   0  0  0
 624 99775   0   0   0   0  0  0
 625   1   0   0   0   0  0  1
 626 200   0   0   0   0  0  0
 627  24   0   0  31   0  0  0
 628 99775   0   0   0   0  0  0
 629   1   0   0   0   0  0  1
 630 200   0   0   0   0  0  0
 631  24   0   0  31   0  0  0
 632 99775   0   0   0   0  0  0
 633   1   0   0   0   0  0  1
 634 200   0   0   0   0  0  0
 635  24   0   0  31   0  0  0
 636 99775   0   0   0   0  0  0
 637   1   0   0   0   0  0  1
 638 200   0   0   0   0  0  0
 639  24   0   0  31   0  0  0
 640 99775   0   0   0   0  0  0
 641   1   0   0   0   0  0  1
 642 200   0   0   0   0  0  0
 643  26   0   0  32   0  0  0
 644 99773   0   0   0   0  0  0
 645   1   0   0   0   0  0  1
 646 200   0   0   0   0  0  0
 647  26   0   0  32   0  0  0
 648 99773   0   0   0   0  0  0
 649   1   0   0   0   0  0  1
 650 200   0   0   0   0  0  0
 651  26   0   0  32   0  0  0
 652 99773   0   0   0   0  0  0
 653   1   0   0   0   0  0  1
 654 200   0   0   0   0  0  0
 655  26   0   0  32   0  0  0
 656 99773   0   0   0   0  0  0
 657   1   0   0   0   0  0  1
 658 200   0   0   0   0  0  0
 659  26   0   0  32   0  0  0
 660 99773   0   0   0   0  0  0
 661   1   0   0   0   0  0  1
 662 200   0   0   0   0  0  0
 663  28   0   0  33   0  0  0
 664 99771   0   0   0   0  0  0
 665   1   0   0   0   0  0  1
 666 200   0   0   0   0  0  0
 667  28   0   0  33   0  0  0
 668 99771   0   0   0   0  0  0
 669   1   0   0   0   0  0  1
 670 200   0   0   0   0  0  0
 671  28   0   0  33   0  0  0
 672 99771   0   0   0   0  0  0
 673   1   0   0   0   0  0  1
 674 200   0   0   0   0  0  0
 675  28   0   0  33   0  0  0
 676 99771   0   0   0   0  0  0
 677   1   0   0   0   0  0  1
 678 200   0   0   0   0  0  0
 679  28   0   0  33   0  0  0
 680 99771   0   0   0   0  0  0
 681   1   0   0   0   0  0  1
 682 200   0   0   0   0  0  0
 683  30   0   0  34   0  0  0
 684 99769   0   0   0   0  0  0
 685   1   0   0   0   0  0  1
 686 200   0   0   0   0  0  0
 687  30   0   0  34   0  0  0
 688 99769   0   0   0   0  0  0
 689   1   0   0   0   0  0  1
 690 200   0   0   0   0  0  0
 691  30   0   0  34   0  0  0
 692 99769   0   0   0   0  0  0
 693   1   0   0   0   0  0  1
 694 200   0   0   0   0  0  0
 695  30   0   0  34   0  0  0
 696 99769   0   0   0   0  0  0
 697   1   0   0   0   0  0  1
 698 200   0   0   0   0  0  0
 699  30   0   0  34   0  0  0
 700 99769   0   0   0   0  0  0
 701   1   0   0   0   0  0  1
 702 200   0   0   0   0  0  0
 703  32   0   0  35   0  0  0
 704 99767   0   0   0   0  0  0
 705   1   0   0   0   0  0  1
 706 200   0   0   0   0  0  0
 707  32   0   0  35   0  0  0
 708 99767   0   0   0   0  0  0
 709   1   0   0   0   0  0  1
 710 200   0   0   0   0  0  0
 711  32   0   0  35   0  0  0
 712 99767   0   0   0   0  0  0
 713   1   0   0   0   0  0  1
 714 200   0   0   0   0  0  0
 715  32   0   0  35   0  0  0
 716 99767   0   0   0   0  0  0
 717   1   0   0   0   0  0  1
 718 200   0   0   0   0  0  0
 719  32   0   0  35   0  0  0
 720 99767   0   0   0   0  0  0
 721   1   0   0   0   0  0  1
 722 200   0   0   0   0  0  0
 723  34   0   0  36   0  0  0
 724 99765   0   0   0   0  0  0
 725   1   0   0   0   0  0  1
 726 200   0   0   0   0  0  0
 727  34   0   0  36   0  0  0
 728 99765   0   0   0   0  0  0
 729   1   0   0   0   0  0  1
 730 200   0   0   0   0  0  0
 731  34   0   0  36   0  0  0
 732 99765   0   0   0   0  0  0
 733   1   0   0   0   0  0  1
 734 200   0   0   0   0  0  0
 735  34   0   0  36   0  0  0
 736 99765   0   0   0   0  0  0
 737   1   0   0   0   0  0  1
 738 200   0   0   0   0  0  0
 739  34   0   0  36   0  0  0
 740 99765   0   0   0   0  0  0
 741   1   0   0   0   0  0  1
 742 200   0   0   0   0  0  0
 743  36   0   0  37   0  0  0
 744 99763   0   0   0   0  0  0
 745   1   0   0   0   0  0  1
 746 200   0   0   0   0  0  0
 747  36   0   0  37   0  0  0
 748 99763   0   0   0   0  0  0
 749   1   0   0   0   0  0  1
 750 200   0   0   0   0  0  0
 751  36   0   0  37   0  0  0
 752 99763   0   0   0   0  0  0
 753   1   0   0   0   0  0  1
 754 200   0   0   0   0  0  0
 755  36   0   0  37   0  0  0
 756 99763   0   0   0   0  0  0
 757   1   0   0   0   0  0  1
 758 200   0   0   0   0  0  0
 759  36   0   0  37   0  0  0
 760 99763   0   0   0   0  0  0
 761   1   0   0   0   0  0  1
 762 200   0   0   0   0  0  0
 763  38   0   0  38   0  0  0
 764 99761   0   0   0   0  0  0
 765   1   0   0   0   0  0  1
 766 200   0   0   0   0  0  0
 767  38   0   0  38   0  0  0
 768 99761   0   0   0   0  0  0
 769   1   0   0   0   0  0  1
 770 200   0   0   0   0  0  0
 771  38   0   0  38   0  0  0
 772 99761   0   0   0   0  0  0
 773   1   0   0   0   0  0  1
 774 200   0   0   0   0  0  0
 775  38   0   0  38   0  0  0
 776 99761   0   0   0   0  0  0
 777   1   0   0   0   0  0  1
 778 200   0   0   0   0  0  0
 779  38   0   0  38   0  0  0
 780 99761   0   0   0   0  0  0
 781   1   0   0   0   0  0  1
 782 99999   0   0   0   0  0  0
 783   1   0   0   0   0  0  1
 784 99999   0   0   0   0  0  0
 785   1   0   0   0   0  0  1
 786 99999   0   0   0   0  0  0
 787   1   0   0   0   0  0  1
 788 99999   0   0   0   0  0  0
 789   1   0   0   0   0  0  1
 790 99999   0   0   0   0  0  0
 791   1   0   0   0   0  0  1
 792 200   0   0   0   0  0  0
 793   2   0   0   0  20  0  0
 794 99797   0   0   0   0  0  0
 795   1   0   0   0   0  0  1
 796 200   0   0   0   0  0  0
 797   2   0   0   0  20  0  0
 798 99797   0   0   0   0  0  0
 799   1   0   0   0   0  0  1
 800 200   0   0   0   0  0  0
 801   2   0   0   0  20  0  0
 802 99797   0   0   0   0  0  0
 803   1   0   0   0   0  0  1
 804 200   0   0   0   0  0  0
 805   2   0   0   0  20  0  0
 806 99797   0   0   0   0  0  0
 807   1   0   0   0   0  0  1
 808 200   0   0   0   0  0  0
 809   2   0   0   0  20  0  0
 810 99797   0   0   0   0  0  0
 811   1   0   0   0   0  0  1
 812 200   0   0   0   0  0  0
 813   4   0   0   0  21  0  0
 814 99795   0   0   0   0  0  0
 815   1   0   0   0   0  0  1
 816 200   0   0   0   0  0  0
 817   4   0   0   0  21  0  0
 818 99795   0   0   0   0  0  0
 819   1   0   0   0   0  0  1
 820 200   0   0   0   0  0  0
 821   4   0   0   0  21  0  0
 822 99795   0   0   0   0  0  0
 823   1   0   0   0   0  0  1
 824 200   0   0   0   0  0  0
 825   4   0   0   0  21  0  0
 826 99795   0   0   0   0  0  0
 827   1   0   0   0   0  0  1
 828 200   0   0   0   0  0  0
 829   4   0   0   0  21  0  0
 830 99795   0   0   0   0  0  0
 831   1   0   0   0   0  0  1
 832 200   0   0   0   0  0  0
 833   6   0   0   0  22  0  0
 834 99793   0   0   0   0  0  0
 835   1   0   0   0   0  0  1
 836 200   0   0   0   0  0  0
 837   6   0   0   0  22  0  0
 838 99793   0   0   0   0  0  0
 839   1   0   0   0   0  0  1
 840 200   0   0   0   0  0  0
 841   6   0   0   0  22  0  0
 842 99793   0   0   0   0  0  0
 843   1   0   0   0   0  0  1
 844 200   0   0   0   0  0  0
 845   6   0   0   0  22  0  0
 846 99793   0   0   0   0  0  0
 847   1   0   0   0   0  0  1
 848 200   0   0   0   0  0  0
 849   6   0   0   0  22  0  0
 850 99793   0   0   0   0  0  0
 851   1   0   0   0   0  0  1
 852 200   0   0   0   0  0  0
 853   8   0   0   0  23  0  0
 854 99791   0   0   0   0  0  0
 855   1   0   0   0   0  0  1
 856 200   0   0   0   0  0  0
 857   8   0   0   0  23  0  0
 858 99791   0   0   0   0  0  0
 859   1   0   0   0   0  0  1
 860 200   0   0   0   0  0  0
 861   8   0   0   0  23  0  0
 862 99791   0   0   0   0  0  0
 863   1   0   0   0   0  0  1
 864 200   0   0   0   0  0  0
 865   8   0   0   0  23  0  0
 866 99791   0   0   0   0  0  0
 867   1   0   0   0   0  0  1
 868 200   0   0   0   0  0  0
 869   8   0   0   0  23  0  0
 870 99791   0   0   0   0  0  0
 871   1   0   0   0   0  0  1
 872 200   0   0   0   0  0  0
 873  10   0   0   0  24  0  0
 874 99789   0   0   0   0  0  0
 875   1   0   0   0   0  0  1
 876 200   0   0   0   0  0  0
 877  10   0   0   0  24  0  0
 878 99789   0   0   0   0  0  0
 879   1   0   0   0   0  0  1
 880 200   0   0   0   0  0  0
 881  10   0   0   0  24  0  0
 882 99789   0   0   0   0  0  0
 883   1   0   0   0   0  0  1
 884 200   0   0   0   0  0  0
 885  10   0   0   0  24  0  0
 886 99789   0   0   0   0  0  0
 887   1   0   0   0   0  0  1
 888 200   0   0   0   0  0  0
 889  10   0   0   0  24  0  0
 890 99789   0   0   0   0  0  0
 891   1   0   0   0   0  0  1
 892 200   0   0   0   0  0  0
 893  12   0   0   0  25  0  0
 894 99787   0   0   0   0  0  0
 895   1   0   0   0   0  0  1
 896 200   0   0   0   0  0  0
 897  12   0   0   0  25  0  0
 898 99787   0   0   0   0  0  0
 899   1   0   0   0   0  0  1
 900 200   0   0   0   0  0  0
 901  12   0   0   0  25  0  0
 902 99787   0   0   0   0  0  0
 903   1   0   0   0   0  0  1
 904 200   0   0   0   0  0  0
 905  12   0   0   0  25  0  0
 906 99787   0   0   0   0  0  0
 907   1   0   0   0   0  0  1
 908 200   0   0   0   0  0  0
 909  12   0   0   0  25  0  0
 910 99787   0   0   0   0  0  0
 911   1   0   0   0   0  0  1
 912 200   0   0   0   0  0  0
 913  14   0   0   0  26  0  0
 914 99785   0   0   0   0  0  0
 915   1   0   0   0   0  0  1
 916 200   0   0   0   0  0  0
 917  14   0   0   0  26  0  0
 918 99785   0   0   0   0  0  0
 919   1   0   0   0   0  0  1
 920 200   0   0   0   0  0  0
 921  14   0   0   0  26  0  0
 922 99785   0   0   0   0  0  0
 923   1   0   0   0   0  0  1
 924 200   0   0   0   0  0  0
 925  14   0   0   0  26  0  0
 926 99785   0   0   0   0  0  0
 927   1   0   0   0   0  0  1
 928 200   0   0   0   0  0  0
 929  14   0   0   0  26  0  0
 930 99785   0   0   0   0  0  0
 931   1   0   0   0   0  0  1
 932 200   0   0   0   0  0  0
 933  16   0   0   0  27  0  0
 934 99783   0   0   0   0  0  0
 935   1   0   0   0   0  0  1
 936 200   0   0   0   0  0  0
 937  16   0   0   0  27  0  0
 938 99783   0   0   0   0  0  0
 939   1   0   0   0   0  0  1
