# Pulseq sequence file
# Created by MATLAB mr toolbox

[VERSION]
major 1
minor 4
revision 0

[DEFINITIONS]
AdcRasterTime 1e-07 
BlockDurationRaster 1e-05 
CameraAcqDuration 0.021 
CameraAqDelay 0 
CameraInterleaveTR 0.15 
CameraNrDynamics 10 
CameraNrSyncDynamics 0 
GradientRasterTime 1e-05 
Name lec 
RadiofrequencyRasterTime 1e-06 

# Format of blocks:
# NUM DUR RF  GX  GY  GZ  ADC  EXT
[BLOCKS]
  1   1   0   0   0   0  0  1
  2  50   0   0   0   0  0  0
  3   6   0   1   0   0  0  0
  4   6   0   2   0   0  0  0
  5   8   0   3   0   0  0  0
  6   8   0   4   0   0  0  0
  7  10   0   5   0   0  0  0
  8  10   0   6   0   0  0  0
  9  12   0   7   0   0  0  0
 10  12   0   8   0   0  0  0
 11  14   0   9   0   0  0  0
 12  14   0  10   0   0  0  0
 13  16   0  11   0   0  0  0
 14  16   0  12   0   0  0  0
 15  18   0  13   0   0  0  0
 16  18   0  14   0   0  0  0
 17  20   0  15   0   0  0  0
 18  20   0  16   0   0  0  0
 19  22   0  17   0   0  0  0
 20  22   0  18   0   0  0  0
 21  24   0  19   0   0  0  0
 22  24   0  20   0   0  0  0
 23  26   0  21   0   0  0  0
 24  26   0  22   0   0  0  0
 25  28   0  23   0   0  0  0
 26  28   0  24   0   0  0  0
 27  30   0  25   0   0  0  0
 28  30   0  26   0   0  0  0
 29  32   0  27   0   0  0  0
 30  32   0  28   0   0  0  0
 31  34   0  29   0   0  0  0
 32  34   0  30   0   0  0  0
 33  36   0  31   0   0  0  0
 34  36   0  32   0   0  0  0
 35   6   0   0   2   0  0  0
 36   6   0   0   1   0  0  0
 37   8   0   0   4   0  0  0
 38   8   0   0   3   0  0  0
 39  10   0   0   6   0  0  0
 40  10   0   0   5   0  0  0
 41  12   0   0   8   0  0  0
 42  12   0   0   7   0  0  0
 43  14   0   0  10   0  0  0
 44  14   0   0   9   0  0  0
 45  16   0   0  12   0  0  0
 46  16   0   0  11   0  0  0
 47  18   0   0  14   0  0  0
 48  18   0   0  13   0  0  0
 49  20   0   0  16   0  0  0
 50  20   0   0  15   0  0  0
 51  22   0   0  18   0  0  0
 52  22   0   0  17   0  0  0
 53  24   0   0  20   0  0  0
 54  24   0   0  19   0  0  0
 55  26   0   0  22   0  0  0
 56  26   0   0  21   0  0  0
 57  28   0   0  24   0  0  0
 58  28   0   0  23   0  0  0
 59  30   0   0  26   0  0  0
 60  30   0   0  25   0  0  0
 61  32   0   0  28   0  0  0
 62  32   0   0  27   0  0  0
 63  34   0   0  30   0  0  0
 64  34   0   0  29   0  0  0
 65  36   0   0  32   0  0  0
 66  36   0   0  31   0  0  0
 67   6   0   0   0   2  0  0
 68   6   0   0   0   1  0  0
 69   8   0   0   0   4  0  0
 70   8   0   0   0   3  0  0
 71  10   0   0   0   6  0  0
 72  10   0   0   0   5  0  0
 73  12   0   0   0   8  0  0
 74  12   0   0   0   7  0  0
 75  14   0   0   0  10  0  0
 76  14   0   0   0   9  0  0
 77  16   0   0   0  12  0  0
 78  16   0   0   0  11  0  0
 79  18   0   0   0  14  0  0
 80  18   0   0   0  13  0  0
 81  20   0   0   0  16  0  0
 82  20   0   0   0  15  0  0
 83  22   0   0   0  18  0  0
 84  22   0   0   0  17  0  0
 85  24   0   0   0  20  0  0
 86  24   0   0   0  19  0  0
 87  26   0   0   0  22  0  0
 88  26   0   0   0  21  0  0
 89  28   0   0   0  24  0  0
 90  28   0   0   0  23  0  0
 91  30   0   0   0  26  0  0
 92  30   0   0   0  25  0  0
 93  32   0   0   0  28  0  0
 94  32   0   0   0  27  0  0
 95  34   0   0   0  30  0  0
 96  34   0   0   0  29  0  0
 97  36   0   0   0  32  0  0
 98  36   0   0   0  31  0  0
 99 17983   0   0   0   0  0  0
100   1   0   0   0   0  0  1
101  50   0   0   0   0  0  0
102   6   0   1   0   0  0  0
103   6   0   2   0   0  0  0
104   8   0   3   0   0  0  0
105   8   0   4   0   0  0  0
106  10   0   5   0   0  0  0
107  10   0   6   0   0  0  0
108  12   0   7   0   0  0  0
109  12   0   8   0   0  0  0
110  14   0   9   0   0  0  0
111  14   0  10   0   0  0  0
112  16   0  11   0   0  0  0
113  16   0  12   0   0  0  0
114  18   0  13   0   0  0  0
115  18   0  14   0   0  0  0
116  20   0  15   0   0  0  0
117  20   0  16   0   0  0  0
118  22   0  17   0   0  0  0
119  22   0  18   0   0  0  0
120  24   0  19   0   0  0  0
121  24   0  20   0   0  0  0
122  26   0  21   0   0  0  0
123  26   0  22   0   0  0  0
124  28   0  23   0   0  0  0
125  28   0  24   0   0  0  0
126  30   0  25   0   0  0  0
127  30   0  26   0   0  0  0
128  32   0  27   0   0  0  0
129  32   0  28   0   0  0  0
130  34   0  29   0   0  0  0
131  34   0  30   0   0  0  0
132  36   0  31   0   0  0  0
133  36   0  32   0   0  0  0
134   6   0   0   2   0  0  0
135   6   0   0   1   0  0  0
136   8   0   0   4   0  0  0
137   8   0   0   3   0  0  0
138  10   0   0   6   0  0  0
139  10   0   0   5   0  0  0
140  12   0   0   8   0  0  0
141  12   0   0   7   0  0  0
142  14   0   0  10   0  0  0
143  14   0   0   9   0  0  0
144  16   0   0  12   0  0  0
145  16   0   0  11   0  0  0
146  18   0   0  14   0  0  0
147  18   0   0  13   0  0  0
148  20   0   0  16   0  0  0
149  20   0   0  15   0  0  0
150  22   0   0  18   0  0  0
151  22   0   0  17   0  0  0
152  24   0   0  20   0  0  0
153  24   0   0  19   0  0  0
154  26   0   0  22   0  0  0
155  26   0   0  21   0  0  0
156  28   0   0  24   0  0  0
157  28   0   0  23   0  0  0
158  30   0   0  26   0  0  0
159  30   0   0  25   0  0  0
160  32   0   0  28   0  0  0
161  32   0   0  27   0  0  0
162  34   0   0  30   0  0  0
163  34   0   0  29   0  0  0
164  36   0   0  32   0  0  0
165  36   0   0  31   0  0  0
166   6   0   0   0   2  0  0
167   6   0   0   0   1  0  0
168   8   0   0   0   4  0  0
169   8   0   0   0   3  0  0
170  10   0   0   0   6  0  0
171  10   0   0   0   5  0  0
172  12   0   0   0   8  0  0
173  12   0   0   0   7  0  0
174  14   0   0   0  10  0  0
175  14   0   0   0   9  0  0
176  16   0   0   0  12  0  0
177  16   0   0   0  11  0  0
178  18   0   0   0  14  0  0
179  18   0   0   0  13  0  0
180  20   0   0   0  16  0  0
181  20   0   0   0  15  0  0
182  22   0   0   0  18  0  0
183  22   0   0   0  17  0  0
184  24   0   0   0  20  0  0
185  24   0   0   0  19  0  0
186  26   0   0   0  22  0  0
187  26   0   0   0  21  0  0
188  28   0   0   0  24  0  0
189  28   0   0   0  23  0  0
190  30   0   0   0  26  0  0
191  30   0   0   0  25  0  0
192  32   0   0   0  28  0  0
193  32   0   0   0  27  0  0
194  34   0   0   0  30  0  0
195  34   0   0   0  29  0  0
196  36   0   0   0  32  0  0
197  36   0   0   0  31  0  0
198 17983   0   0   0   0  0  0
199   1   0   0   0   0  0  1
200  50   0   0   0   0  0  0
201   6   0   1   0   0  0  0
202   6   0   2   0   0  0  0
203   8   0   3   0   0  0  0
204   8   0   4   0   0  0  0
205  10   0   5   0   0  0  0
206  10   0   6   0   0  0  0
207  12   0   7   0   0  0  0
208  12   0   8   0   0  0  0
209  14   0   9   0   0  0  0
210  14   0  10   0   0  0  0
211  16   0  11   0   0  0  0
212  16   0  12   0   0  0  0
213  18   0  13   0   0  0  0
214  18   0  14   0   0  0  0
215  20   0  15   0   0  0  0
216  20   0  16   0   0  0  0
217  22   0  17   0   0  0  0
218  22   0  18   0   0  0  0
219  24   0  19   0   0  0  0
220  24   0  20   0   0  0  0
221  26   0  21   0   0  0  0
222  26   0  22   0   0  0  0
223  28   0  23   0   0  0  0
224  28   0  24   0   0  0  0
225  30   0  25   0   0  0  0
226  30   0  26   0   0  0  0
227  32   0  27   0   0  0  0
228  32   0  28   0   0  0  0
229  34   0  29   0   0  0  0
230  34   0  30   0   0  0  0
231  36   0  31   0   0  0  0
232  36   0  32   0   0  0  0
233   6   0   0   2   0  0  0
234   6   0   0   1   0  0  0
235   8   0   0   4   0  0  0
236   8   0   0   3   0  0  0
237  10   0   0   6   0  0  0
238  10   0   0   5   0  0  0
239  12   0   0   8   0  0  0
240  12   0   0   7   0  0  0
241  14   0   0  10   0  0  0
242  14   0   0   9   0  0  0
243  16   0   0  12   0  0  0
244  16   0   0  11   0  0  0
245  18   0   0  14   0  0  0
246  18   0   0  13   0  0  0
247  20   0   0  16   0  0  0
248  20   0   0  15   0  0  0
249  22   0   0  18   0  0  0
250  22   0   0  17   0  0  0
251  24   0   0  20   0  0  0
252  24   0   0  19   0  0  0
253  26   0   0  22   0  0  0
254  26   0   0  21   0  0  0
255  28   0   0  24   0  0  0
256  28   0   0  23   0  0  0
257  30   0   0  26   0  0  0
258  30   0   0  25   0  0  0
259  32   0   0  28   0  0  0
260  32   0   0  27   0  0  0
261  34   0   0  30   0  0  0
262  34   0   0  29   0  0  0
263  36   0   0  32   0  0  0
264  36   0   0  31   0  0  0
265   6   0   0   0   2  0  0
266   6   0   0   0   1  0  0
267   8   0   0   0   4  0  0
268   8   0   0   0   3  0  0
269  10   0   0   0   6  0  0
270  10   0   0   0   5  0  0
271  12   0   0   0   8  0  0
272  12   0   0   0   7  0  0
273  14   0   0   0  10  0  0
274  14   0   0   0   9  0  0
275  16   0   0   0  12  0  0
276  16   0   0   0  11  0  0
277  18   0   0   0  14  0  0
278  18   0   0   0  13  0  0
279  20   0   0   0  16  0  0
280  20   0   0   0  15  0  0
281  22   0   0   0  18  0  0
282  22   0   0   0  17  0  0
283  24   0   0   0  20  0  0
284  24   0   0   0  19  0  0
285  26   0   0   0  22  0  0
286  26   0   0   0  21  0  0
287  28   0   0   0  24  0  0
288  28   0   0   0  23  0  0
289  30   0   0   0  26  0  0
290  30   0   0   0  25  0  0
291  32   0   0   0  28  0  0
292  32   0   0   0  27  0  0
293  34   0   0   0  30  0  0
294  34   0   0   0  29  0  0
295  36   0   0   0  32  0  0
296  36   0   0   0  31  0  0
297 17983   0   0   0   0  0  0
298   1   0   0   0   0  0  1
299  50   0   0   0   0  0  0
300   6   0   1   0   0  0  0
301   6   0   2   0   0  0  0
302   8   0   3   0   0  0  0
303   8   0   4   0   0  0  0
304  10   0   5   0   0  0  0
305  10   0   6   0   0  0  0
306  12   0   7   0   0  0  0
307  12   0   8   0   0  0  0
308  14   0   9   0   0  0  0
309  14   0  10   0   0  0  0
310  16   0  11   0   0  0  0
311  16   0  12   0   0  0  0
312  18   0  13   0   0  0  0
313  18   0  14   0   0  0  0
314  20   0  15   0   0  0  0
315  20   0  16   0   0  0  0
316  22   0  17   0   0  0  0
317  22   0  18   0   0  0  0
318  24   0  19   0   0  0  0
319  24   0  20   0   0  0  0
320  26   0  21   0   0  0  0
321  26   0  22   0   0  0  0
322  28   0  23   0   0  0  0
323  28   0  24   0   0  0  0
324  30   0  25   0   0  0  0
325  30   0  26   0   0  0  0
326  32   0  27   0   0  0  0
327  32   0  28   0   0  0  0
328  34   0  29   0   0  0  0
329  34   0  30   0   0  0  0
330  36   0  31   0   0  0  0
331  36   0  32   0   0  0  0
332   6   0   0   2   0  0  0
333   6   0   0   1   0  0  0
334   8   0   0   4   0  0  0
335   8   0   0   3   0  0  0
336  10   0   0   6   0  0  0
337  10   0   0   5   0  0  0
338  12   0   0   8   0  0  0
339  12   0   0   7   0  0  0
340  14   0   0  10   0  0  0
341  14   0   0   9   0  0  0
342  16   0   0  12   0  0  0
343  16   0   0  11   0  0  0
344  18   0   0  14   0  0  0
345  18   0   0  13   0  0  0
346  20   0   0  16   0  0  0
347  20   0   0  15   0  0  0
348  22   0   0  18   0  0  0
349  22   0   0  17   0  0  0
350  24   0   0  20   0  0  0
351  24   0   0  19   0  0  0
352  26   0   0  22   0  0  0
353  26   0   0  21   0  0  0
354  28   0   0  24   0  0  0
355  28   0   0  23   0  0  0
356  30   0   0  26   0  0  0
357  30   0   0  25   0  0  0
358  32   0   0  28   0  0  0
359  32   0   0  27   0  0  0
360  34   0   0  30   0  0  0
361  34   0   0  29   0  0  0
362  36   0   0  32   0  0  0
363  36   0   0  31   0  0  0
364   6   0   0   0   2  0  0
365   6   0   0   0   1  0  0
366   8   0   0   0   4  0  0
367   8   0   0   0   3  0  0
368  10   0   0   0   6  0  0
369  10   0   0   0   5  0  0
370  12   0   0   0   8  0  0
371  12   0   0   0   7  0  0
372  14   0   0   0  10  0  0
373  14   0   0   0   9  0  0
374  16   0   0   0  12  0  0
375  16   0   0   0  11  0  0
376  18   0   0   0  14  0  0
377  18   0   0   0  13  0  0
378  20   0   0   0  16  0  0
379  20   0   0   0  15  0  0
380  22   0   0   0  18  0  0
381  22   0   0   0  17  0  0
382  24   0   0   0  20  0  0
383  24   0   0   0  19  0  0
384  26   0   0   0  22  0  0
385  26   0   0   0  21  0  0
386  28   0   0   0  24  0  0
387  28   0   0   0  23  0  0
388  30   0   0   0  26  0  0
389  30   0   0   0  25  0  0
390  32   0   0   0  28  0  0
391  32   0   0   0  27  0  0
392  34   0   0   0  30  0  0
393  34   0   0   0  29  0  0
394  36   0   0   0  32  0  0
395  36   0   0   0  31  0  0
396 17983   0   0   0   0  0  0
397   1   0   0   0   0  0  1
398  50   0   0   0   0  0  0
399   6   0   1   0   0  0  0
400   6   0   2   0   0  0  0
401   8   0   3   0   0  0  0
402   8   0   4   0   0  0  0
403  10   0   5   0   0  0  0
404  10   0   6   0   0  0  0
405  12   0   7   0   0  0  0
406  12   0   8   0   0  0  0
407  14   0   9   0   0  0  0
408  14   0  10   0   0  0  0
409  16   0  11   0   0  0  0
410  16   0  12   0   0  0  0
411  18   0  13   0   0  0  0
412  18   0  14   0   0  0  0
413  20   0  15   0   0  0  0
414  20   0  16   0   0  0  0
415  22   0  17   0   0  0  0
416  22   0  18   0   0  0  0
417  24   0  19   0   0  0  0
418  24   0  20   0   0  0  0
419  26   0  21   0   0  0  0
420  26   0  22   0   0  0  0
421  28   0  23   0   0  0  0
422  28   0  24   0   0  0  0
423  30   0  25   0   0  0  0
424  30   0  26   0   0  0  0
425  32   0  27   0   0  0  0
426  32   0  28   0   0  0  0
427  34   0  29   0   0  0  0
428  34   0  30   0   0  0  0
429  36   0  31   0   0  0  0
430  36   0  32   0   0  0  0
431   6   0   0   2   0  0  0
432   6   0   0   1   0  0  0
433   8   0   0   4   0  0  0
434   8   0   0   3   0  0  0
435  10   0   0   6   0  0  0
436  10   0   0   5   0  0  0
437  12   0   0   8   0  0  0
438  12   0   0   7   0  0  0
439  14   0   0  10   0  0  0
440  14   0   0   9   0  0  0
441  16   0   0  12   0  0  0
442  16   0   0  11   0  0  0
443  18   0   0  14   0  0  0
444  18   0   0  13   0  0  0
445  20   0   0  16   0  0  0
446  20   0   0  15   0  0  0
447  22   0   0  18   0  0  0
448  22   0   0  17   0  0  0
449  24   0   0  20   0  0  0
450  24   0   0  19   0  0  0
451  26   0   0  22   0  0  0
452  26   0   0  21   0  0  0
453  28   0   0  24   0  0  0
454  28   0   0  23   0  0  0
455  30   0   0  26   0  0  0
456  30   0   0  25   0  0  0
457  32   0   0  28   0  0  0
458  32   0   0  27   0  0  0
459  34   0   0  30   0  0  0
460  34   0   0  29   0  0  0
461  36   0   0  32   0  0  0
462  36   0   0  31   0  0  0
463   6   0   0   0   2  0  0
464   6   0   0   0   1  0  0
465   8   0   0   0   4  0  0
466   8   0   0   0   3  0  0
467  10   0   0   0   6  0  0
468  10   0   0   0   5  0  0
469  12   0   0   0   8  0  0
470  12   0   0   0   7  0  0
471  14   0   0   0  10  0  0
472  14   0   0   0   9  0  0
473  16   0   0   0  12  0  0
474  16   0   0   0  11  0  0
475  18   0   0   0  14  0  0
476  18   0   0   0  13  0  0
477  20   0   0   0  16  0  0
478  20   0   0   0  15  0  0
479  22   0   0   0  18  0  0
480  22   0   0   0  17  0  0
481  24   0   0   0  20  0  0
482  24   0   0   0  19  0  0
483  26   0   0   0  22  0  0
484  26   0   0   0  21  0  0
485  28   0   0   0  24  0  0
486  28   0   0   0  23  0  0
487  30   0   0   0  26  0  0
488  30   0   0   0  25  0  0
489  32   0   0   0  28  0  0
490  32   0   0   0  27  0  0
491  34   0   0   0  30  0  0
492  34   0   0   0  29  0  0
493  36   0   0   0  32  0  0
494  36   0   0   0  31  0  0
495 17983   0   0   0   0  0  0
496   1   0   0   0   0  0  1
497  50   0   0   0   0  0  0
498   6   0   1   0   0  0  0
499   6   0   2   0   0  0  0
500   8   0   3   0   0  0  0
501   8   0   4   0   0  0  0
502  10   0   5   0   0  0  0
503  10   0   6   0   0  0  0
504  12   0   7   0   0  0  0
505  12   0   8   0   0  0  0
506  14   0   9   0   0  0  0
507  14   0  10   0   0  0  0
508  16   0  11   0   0  0  0
509  16   0  12   0   0  0  0
510  18   0  13   0   0  0  0
511  18   0  14   0   0  0  0
512  20   0  15   0   0  0  0
513  20   0  16   0   0  0  0
514  22   0  17   0   0  0  0
515  22   0  18   0   0  0  0
516  24   0  19   0   0  0  0
517  24   0  20   0   0  0  0
518  26   0  21   0   0  0  0
519  26   0  22   0   0  0  0
520  28   0  23   0   0  0  0
521  28   0  24   0   0  0  0
522  30   0  25   0   0  0  0
523  30   0  26   0   0  0  0
524  32   0  27   0   0  0  0
525  32   0  28   0   0  0  0
526  34   0  29   0   0  0  0
527  34   0  30   0   0  0  0
528  36   0  31   0   0  0  0
529  36   0  32   0   0  0  0
530   6   0   0   2   0  0  0
531   6   0   0   1   0  0  0
532   8   0   0   4   0  0  0
533   8   0   0   3   0  0  0
534  10   0   0   6   0  0  0
535  10   0   0   5   0  0  0
536  12   0   0   8   0  0  0
537  12   0   0   7   0  0  0
538  14   0   0  10   0  0  0
539  14   0   0   9   0  0  0
540  16   0   0  12   0  0  0
541  16   0   0  11   0  0  0
542  18   0   0  14   0  0  0
543  18   0   0  13   0  0  0
544  20   0   0  16   0  0  0
545  20   0   0  15   0  0  0
546  22   0   0  18   0  0  0
547  22   0   0  17   0  0  0
548  24   0   0  20   0  0  0
549  24   0   0  19   0  0  0
550  26   0   0  22   0  0  0
551  26   0   0  21   0  0  0
552  28   0   0  24   0  0  0
553  28   0   0  23   0  0  0
554  30   0   0  26   0  0  0
555  30   0   0  25   0  0  0
556  32   0   0  28   0  0  0
557  32   0   0  27   0  0  0
558  34   0   0  30   0  0  0
559  34   0   0  29   0  0  0
560  36   0   0  32   0  0  0
561  36   0   0  31   0  0  0
562   6   0   0   0   2  0  0
563   6   0   0   0   1  0  0
564   8   0   0   0   4  0  0
565   8   0   0   0   3  0  0
566  10   0   0   0   6  0  0
567  10   0   0   0   5  0  0
568  12   0   0   0   8  0  0
569  12   0   0   0   7  0  0
570  14   0   0   0  10  0  0
571  14   0   0   0   9  0  0
572  16   0   0   0  12  0  0
573  16   0   0   0  11  0  0
574  18   0   0   0  14  0  0
575  18   0   0   0  13  0  0
576  20   0   0   0  16  0  0
577  20   0   0   0  15  0  0
578  22   0   0   0  18  0  0
579  22   0   0   0  17  0  0
580  24   0   0   0  20  0  0
581  24   0   0   0  19  0  0
582  26   0   0   0  22  0  0
583  26   0   0   0  21  0  0
584  28   0   0   0  24  0  0
585  28   0   0   0  23  0  0
586  30   0   0   0  26  0  0
587  30   0   0   0  25  0  0
588  32   0   0   0  28  0  0
589  32   0   0   0  27  0  0
590  34   0   0   0  30  0  0
591  34   0   0   0  29  0  0
592  36   0   0   0  32  0  0
593  36   0   0   0  31  0  0
594 17983   0   0   0   0  0  0
595   1   0   0   0   0  0  1
596  50   0   0   0   0  0  0
597   6   0   1   0   0  0  0
598   6   0   2   0   0  0  0
599   8   0   3   0   0  0  0
600   8   0   4   0   0  0  0
601  10   0   5   0   0  0  0
602  10   0   6   0   0  0  0
603  12   0   7   0   0  0  0
604  12   0   8   0   0  0  0
605  14   0   9   0   0  0  0
606  14   0  10   0   0  0  0
607  16   0  11   0   0  0  0
608  16   0  12   0   0  0  0
609  18   0  13   0   0  0  0
610  18   0  14   0   0  0  0
611  20   0  15   0   0  0  0
612  20   0  16   0   0  0  0
613  22   0  17   0   0  0  0
614  22   0  18   0   0  0  0
615  24   0  19   0   0  0  0
616  24   0  20   0   0  0  0
617  26   0  21   0   0  0  0
618  26   0  22   0   0  0  0
619  28   0  23   0   0  0  0
620  28   0  24   0   0  0  0
621  30   0  25   0   0  0  0
622  30   0  26   0   0  0  0
623  32   0  27   0   0  0  0
624  32   0  28   0   0  0  0
625  34   0  29   0   0  0  0
626  34   0  30   0   0  0  0
627  36   0  31   0   0  0  0
628  36   0  32   0   0  0  0
629   6   0   0   2   0  0  0
630   6   0   0   1   0  0  0
631   8   0   0   4   0  0  0
632   8   0   0   3   0  0  0
633  10   0   0   6   0  0  0
634  10   0   0   5   0  0  0
635  12   0   0   8   0  0  0
636  12   0   0   7   0  0  0
637  14   0   0  10   0  0  0
638  14   0   0   9   0  0  0
639  16   0   0  12   0  0  0
640  16   0   0  11   0  0  0
641  18   0   0  14   0  0  0
642  18   0   0  13   0  0  0
643  20   0   0  16   0  0  0
644  20   0   0  15   0  0  0
645  22   0   0  18   0  0  0
646  22   0   0  17   0  0  0
647  24   0   0  20   0  0  0
648  24   0   0  19   0  0  0
649  26   0   0  22   0  0  0
650  26   0   0  21   0  0  0
651  28   0   0  24   0  0  0
652  28   0   0  23   0  0  0
653  30   0   0  26   0  0  0
654  30   0   0  25   0  0  0
655  32   0   0  28   0  0  0
656  32   0   0  27   0  0  0
657  34   0   0  30   0  0  0
658  34   0   0  29   0  0  0
659  36   0   0  32   0  0  0
660  36   0   0  31   0  0  0
661   6   0   0   0   2  0  0
662   6   0   0   0   1  0  0
663   8   0   0   0   4  0  0
664   8   0   0   0   3  0  0
665  10   0   0   0   6  0  0
666  10   0   0   0   5  0  0
667  12   0   0   0   8  0  0
668  12   0   0   0   7  0  0
669  14   0   0   0  10  0  0
670  14   0   0   0   9  0  0
671  16   0   0   0  12  0  0
672  16   0   0   0  11  0  0
673  18   0   0   0  14  0  0
674  18   0   0   0  13  0  0
675  20   0   0   0  16  0  0
676  20   0   0   0  15  0  0
677  22   0   0   0  18  0  0
678  22   0   0   0  17  0  0
679  24   0   0   0  20  0  0
680  24   0   0   0  19  0  0
681  26   0   0   0  22  0  0
682  26   0   0   0  21  0  0
683  28   0   0   0  24  0  0
684  28   0   0   0  23  0  0
685  30   0   0   0  26  0  0
686  30   0   0   0  25  0  0
687  32   0   0   0  28  0  0
688  32   0   0   0  27  0  0
689  34   0   0   0  30  0  0
690  34   0   0   0  29  0  0
691  36   0   0   0  32  0  0
692  36   0   0   0  31  0  0
693 17983   0   0   0   0  0  0
694   1   0   0   0   0  0  1
695  50   0   0   0   0  0  0
696   6   0   1   0   0  0  0
697   6   0   2   0   0  0  0
698   8   0   3   0   0  0  0
699   8   0   4   0   0  0  0
700  10   0   5   0   0  0  0
701  10   0   6   0   0  0  0
702  12   0   7   0   0  0  0
703  12   0   8   0   0  0  0
704  14   0   9   0   0  0  0
705  14   0  10   0   0  0  0
706  16   0  11   0   0  0  0
707  16   0  12   0   0  0  0
708  18   0  13   0   0  0  0
709  18   0  14   0   0  0  0
710  20   0  15   0   0  0  0
711  20   0  16   0   0  0  0
712  22   0  17   0   0  0  0
713  22   0  18   0   0  0  0
714  24   0  19   0   0  0  0
715  24   0  20   0   0  0  0
716  26   0  21   0   0  0  0
717  26   0  22   0   0  0  0
718  28   0  23   0   0  0  0
719  28   0  24   0   0  0  0
720  30   0  25   0   0  0  0
721  30   0  26   0   0  0  0
722  32   0  27   0   0  0  0
723  32   0  28   0   0  0  0
724  34   0  29   0   0  0  0
725  34   0  30   0   0  0  0
726  36   0  31   0   0  0  0
727  36   0  32   0   0  0  0
728   6   0   0   2   0  0  0
729   6   0   0   1   0  0  0
730   8   0   0   4   0  0  0
731   8   0   0   3   0  0  0
732  10   0   0   6   0  0  0
733  10   0   0   5   0  0  0
734  12   0   0   8   0  0  0
735  12   0   0   7   0  0  0
736  14   0   0  10   0  0  0
737  14   0   0   9   0  0  0
738  16   0   0  12   0  0  0
739  16   0   0  11   0  0  0
740  18   0   0  14   0  0  0
741  18   0   0  13   0  0  0
742  20   0   0  16   0  0  0
743  20   0   0  15   0  0  0
744  22   0   0  18   0  0  0
745  22   0   0  17   0  0  0
746  24   0   0  20   0  0  0
747  24   0   0  19   0  0  0
748  26   0   0  22   0  0  0
749  26   0   0  21   0  0  0
750  28   0   0  24   0  0  0
751  28   0   0  23   0  0  0
752  30   0   0  26   0  0  0
753  30   0   0  25   0  0  0
754  32   0   0  28   0  0  0
755  32   0   0  27   0  0  0
756  34   0   0  30   0  0  0
757  34   0   0  29   0  0  0
758  36   0   0  32   0  0  0
759  36   0   0  31   0  0  0
760   6   0   0   0   2  0  0
761   6   0   0   0   1  0  0
762   8   0   0   0   4  0  0
763   8   0   0   0   3  0  0
764  10   0   0   0   6  0  0
765  10   0   0   0   5  0  0
766  12   0   0   0   8  0  0
767  12   0   0   0   7  0  0
768  14   0   0   0  10  0  0
769  14   0   0   0   9  0  0
770  16   0   0   0  12  0  0
771  16   0   0   0  11  0  0
772  18   0   0   0  14  0  0
773  18   0   0   0  13  0  0
774  20   0   0   0  16  0  0
775  20   0   0   0  15  0  0
776  22   0   0   0  18  0  0
777  22   0   0   0  17  0  0
778  24   0   0   0  20  0  0
779  24   0   0   0  19  0  0
780  26   0   0   0  22  0  0
781  26   0   0   0  21  0  0
782  28   0   0   0  24  0  0
783  28   0   0   0  23  0  0
784  30   0   0   0  26  0  0
785  30   0   0   0  25  0  0
786  32   0   0   0  28  0  0
787  32   0   0   0  27  0  0
788  34   0   0   0  30  0  0
789  34   0   0   0  29  0  0
790  36   0   0   0  32  0  0
791  36   0   0   0  31  0  0
792 17983   0   0   0   0  0  0
793   1   0   0   0   0  0  1
794  50   0   0   0   0  0  0
795   6   0   1   0   0  0  0
796   6   0   2   0   0  0  0
797   8   0   3   0   0  0  0
798   8   0   4   0   0  0  0
799  10   0   5   0   0  0  0
800  10   0   6   0   0  0  0
801  12   0   7   0   0  0  0
802  12   0   8   0   0  0  0
803  14   0   9   0   0  0  0
804  14   0  10   0   0  0  0
805  16   0  11   0   0  0  0
806  16   0  12   0   0  0  0
807  18   0  13   0   0  0  0
808  18   0  14   0   0  0  0
809  20   0  15   0   0  0  0
810  20   0  16   0   0  0  0
811  22   0  17   0   0  0  0
812  22   0  18   0   0  0  0
813  24   0  19   0   0  0  0
814  24   0  20   0   0  0  0
815  26   0  21   0   0  0  0
816  26   0  22   0   0  0  0
817  28   0  23   0   0  0  0
818  28   0  24   0   0  0  0
819  30   0  25   0   0  0  0
820  30   0  26   0   0  0  0
821  32   0  27   0   0  0  0
822  32   0  28   0   0  0  0
823  34   0  29   0   0  0  0
824  34   0  30   0   0  0  0
825  36   0  31   0   0  0  0
826  36   0  32   0   0  0  0
827   6   0   0   2   0  0  0
828   6   0   0   1   0  0  0
829   8   0   0   4   0  0  0
830   8   0   0   3   0  0  0
831  10   0   0   6   0  0  0
832  10   0   0   5   0  0  0
833  12   0   0   8   0  0  0
834  12   0   0   7   0  0  0
835  14   0   0  10   0  0  0
836  14   0   0   9   0  0  0
837  16   0   0  12   0  0  0
838  16   0   0  11   0  0  0
839  18   0   0  14   0  0  0
840  18   0   0  13   0  0  0
841  20   0   0  16   0  0  0
842  20   0   0  15   0  0  0
843  22   0   0  18   0  0  0
844  22   0   0  17   0  0  0
845  24   0   0  20   0  0  0
846  24   0   0  19   0  0  0
847  26   0   0  22   0  0  0
848  26   0   0  21   0  0  0
849  28   0   0  24   0  0  0
850  28   0   0  23   0  0  0
851  30   0   0  26   0  0  0
852  30   0   0  25   0  0  0
853  32   0   0  28   0  0  0
854  32   0   0  27   0  0  0
855  34   0   0  30   0  0  0
856  34   0   0  29   0  0  0
857  36   0   0  32   0  0  0
858  36   0   0  31   0  0  0
859   6   0   0   0   2  0  0
860   6   0   0   0   1  0  0
861   8   0   0   0   4  0  0
862   8   0   0   0   3  0  0
863  10   0   0   0   6  0  0
864  10   0   0   0   5  0  0
865  12   0   0   0   8  0  0
866  12   0   0   0   7  0  0
867  14   0   0   0  10  0  0
868  14   0   0   0   9  0  0
869  16   0   0   0  12  0  0
870  16   0   0   0  11  0  0
871  18   0   0   0  14  0  0
872  18   0   0   0  13  0  0
873  20   0   0   0  16  0  0
874  20   0   0   0  15  0  0
875  22   0   0   0  18  0  0
876  22   0   0   0  17  0  0
877  24   0   0   0  20  0  0
878  24   0   0   0  19  0  0
879  26   0   0   0  22  0  0
880  26   0   0   0  21  0  0
881  28   0   0   0  24  0  0
882  28   0   0   0  23  0  0
883  30   0   0   0  26  0  0
884  30   0   0   0  25  0  0
885  32   0   0   0  28  0  0
886  32   0   0   0  27  0  0
887  34   0   0   0  30  0  0
888  34   0   0   0  29  0  0
889  36   0   0   0  32  0  0
890  36   0   0   0  31  0  0
891 17983   0   0   0   0  0  0
892   1   0   0   0   0  0  1
893  50   0   0   0   0  0  0
894   6   0   1   0   0  0  0
895   6   0   2   0   0  0  0
896   8   0   3   0   0  0  0
897   8   0   4   0   0  0  0
898  10   0   5   0   0  0  0
899  10   0   6   0   0  0  0
900  12   0   7   0   0  0  0
901  12   0   8   0   0  0  0
902  14   0   9   0   0  0  0
903  14   0  10   0   0  0  0
904  16   0  11   0   0  0  0
905  16   0  12   0   0  0  0
906  18   0  13   0   0  0  0
907  18   0  14   0   0  0  0
908  20   0  15   0   0  0  0
909  20   0  16   0   0  0  0
910  22   0  17   0   0  0  0
911  22   0  18   0   0  0  0
912  24   0  19   0   0  0  0
913  24   0  20   0   0  0  0
914  26   0  21   0   0  0  0
915  26   0  22   0   0  0  0
916  28   0  23   0   0  0  0
917  28   0  24   0   0  0  0
918  30   0  25   0   0  0  0
919  30   0  26   0   0  0  0
920  32   0  27   0   0  0  0
921  32   0  28   0   0  0  0
922  34   0  29   0   0  0  0
923  34   0  30   0   0  0  0
924  36   0  31   0   0  0  0
925  36   0  32   0   0  0  0
926   6   0   0   2   0  0  0
927   6   0   0   1   0  0  0
928   8   0   0   4   0  0  0
929   8   0   0   3   0  0  0
930  10   0   0   6   0  0  0
931  10   0   0   5   0  0  0
932  12   0   0   8   0  0  0
933  12   0   0   7   0  0  0
934  14   0   0  10   0  0  0
935  14   0   0   9   0  0  0
936  16   0   0  12   0  0  0
937  16   0   0  11   0  0  0
938  18   0   0  14   0  0  0
939  18   0   0  13   0  0  0
940  20   0   0  16   0  0  0
941  20   0   0  15   0  0  0
942  22   0   0  18   0  0  0
943  22   0   0  17   0  0  0
944  24   0   0  20   0  0  0
945  24   0   0  19   0  0  0
946  26   0   0  22   0  0  0
947  26   0   0  21   0  0  0
948  28   0   0  24   0  0  0
949  28   0   0  23   0  0  0
950  30   0   0  26   0  0  0
951  30   0   0  25   0  0  0
952  32   0   0  28   0  0  0
953  32   0   0  27   0  0  0
954  34   0   0  30   0  0  0
955  34   0   0  29   0  0  0
956  36   0   0  32   0  0  0
957  36   0   0  31   0  0  0
958   6   0   0   0   2  0  0
959   6   0   0   0   1  0  0
960   8   0   0   0   4  0  0
961   8   0   0   0   3  0  0
962  10   0   0   0   6  0  0
963  10   0   0   0   5  0  0
964  12   0   0   0   8  0  0
965  12   0   0   0   7  0  0
966  14   0   0   0  10  0  0
967  14   0   0   0   9  0  0
968  16   0   0   0  12  0  0
969  16   0   0   0  11  0  0
970  18   0   0   0  14  0  0
971  18   0   0   0  13  0  0
972  20   0   0   0  16  0  0
973  20   0   0   0  15  0  0
974  22   0   0   0  18  0  0
975  22   0   0   0  17  0  0
976  24   0   0   0  20  0  0
977  24   0   0   0  19  0  0
978  26   0   0   0  22  0  0
979  26   0   0   0  21  0  0
980  28   0   0   0  24  0  0
981  28   0   0   0  23  0  0
982  30   0   0   0  26  0  0
983  30   0   0   0  25  0  0
984  32   0   0   0  28  0  0
985  32   0   0   0  27  0  0
986  34   0   0   0  30  0  0
