# Pulseq sequence file
# Created by MATLAB mr toolbox

[VERSION]
major 1
minor 4
revision 1

[DEFINITIONS]
AdcRasterTime 1e-07 
BlockDurationRaster 1e-05 
CameraAcqDuration 0.07 
CameraAqDelay 0 
CameraInterleaveTR 0.4 
CameraNrDynamics 120 
CameraNrSyncDynamics 0 
GradientRasterTime 1e-05 
Name gtf_linCheck 
RadiofrequencyRasterTime 1e-06 

# Format of blocks:
# NUM DUR RF  GX  GY  GZ  ADC  EXT
[BLOCKS]
  1   1   0   0   0   0  0  1
  2 99999   0   0   0   0  0  0
  3   1   0   0   0   0  0  1
  4 99999   0   0   0   0  0  0
  5   1   0   0   0   0  0  1
  6 200   0   0   0   0  0  0
  7   2   0   1   0   0  0  0
  8 99797   0   0   0   0  0  0
  9   1   0   0   0   0  0  1
 10 200   0   0   0   0  0  0
 11   2   0   2   0   0  0  0
 12 99797   0   0   0   0  0  0
 13   1   0   0   0   0  0  1
 14 200   0   0   0   0  0  0
 15   4   0   3   0   0  0  0
 16 99795   0   0   0   0  0  0
 17   1   0   0   0   0  0  1
 18 200   0   0   0   0  0  0
 19   4   0   4   0   0  0  0
 20 99795   0   0   0   0  0  0
 21   1   0   0   0   0  0  1
 22 200   0   0   0   0  0  0
 23   6   0   5   0   0  0  0
 24 99793   0   0   0   0  0  0
 25   1   0   0   0   0  0  1
 26 200   0   0   0   0  0  0
 27   6   0   6   0   0  0  0
 28 99793   0   0   0   0  0  0
 29   1   0   0   0   0  0  1
 30 200   0   0   0   0  0  0
 31   8   0   7   0   0  0  0
 32 99791   0   0   0   0  0  0
 33   1   0   0   0   0  0  1
 34 200   0   0   0   0  0  0
 35   8   0   8   0   0  0  0
 36 99791   0   0   0   0  0  0
 37   1   0   0   0   0  0  1
 38 200   0   0   0   0  0  0
 39  10   0   9   0   0  0  0
 40 99789   0   0   0   0  0  0
 41   1   0   0   0   0  0  1
 42 200   0   0   0   0  0  0
 43  10   0  10   0   0  0  0
 44 99789   0   0   0   0  0  0
 45   1   0   0   0   0  0  1
 46 200   0   0   0   0  0  0
 47  12   0  11   0   0  0  0
 48 99787   0   0   0   0  0  0
 49   1   0   0   0   0  0  1
 50 200   0   0   0   0  0  0
 51  12   0  12   0   0  0  0
 52 99787   0   0   0   0  0  0
 53   1   0   0   0   0  0  1
 54 200   0   0   0   0  0  0
 55  14   0  13   0   0  0  0
 56 99785   0   0   0   0  0  0
 57   1   0   0   0   0  0  1
 58 200   0   0   0   0  0  0
 59  14   0  14   0   0  0  0
 60 99785   0   0   0   0  0  0
 61   1   0   0   0   0  0  1
 62 200   0   0   0   0  0  0
 63  16   0  15   0   0  0  0
 64 99783   0   0   0   0  0  0
 65   1   0   0   0   0  0  1
 66 200   0   0   0   0  0  0
 67  16   0  16   0   0  0  0
 68 99783   0   0   0   0  0  0
 69   1   0   0   0   0  0  1
 70 200   0   0   0   0  0  0
 71  18   0  17   0   0  0  0
 72 99781   0   0   0   0  0  0
 73   1   0   0   0   0  0  1
 74 200   0   0   0   0  0  0
 75  18   0  18   0   0  0  0
 76 99781   0   0   0   0  0  0
 77   1   0   0   0   0  0  1
 78 200   0   0   0   0  0  0
 79  20   0  19   0   0  0  0
 80 99779   0   0   0   0  0  0
 81   1   0   0   0   0  0  1
 82 200   0   0   0   0  0  0
 83  20   0  20   0   0  0  0
 84 99779   0   0   0   0  0  0
 85   1   0   0   0   0  0  1
 86 200   0   0   0   0  0  0
 87  22   0  21   0   0  0  0
 88 99777   0   0   0   0  0  0
 89   1   0   0   0   0  0  1
 90 200   0   0   0   0  0  0
 91  22   0  22   0   0  0  0
 92 99777   0   0   0   0  0  0
 93   1   0   0   0   0  0  1
 94 200   0   0   0   0  0  0
 95  24   0  23   0   0  0  0
 96 99775   0   0   0   0  0  0
 97   1   0   0   0   0  0  1
 98 200   0   0   0   0  0  0
 99  24   0  24   0   0  0  0
100 99775   0   0   0   0  0  0
101   1   0   0   0   0  0  1
102 200   0   0   0   0  0  0
103  26   0  25   0   0  0  0
104 99773   0   0   0   0  0  0
105   1   0   0   0   0  0  1
106 200   0   0   0   0  0  0
107  26   0  26   0   0  0  0
108 99773   0   0   0   0  0  0
109   1   0   0   0   0  0  1
110 200   0   0   0   0  0  0
111  28   0  27   0   0  0  0
112 99771   0   0   0   0  0  0
113   1   0   0   0   0  0  1
114 200   0   0   0   0  0  0
115  28   0  28   0   0  0  0
116 99771   0   0   0   0  0  0
117   1   0   0   0   0  0  1
118 200   0   0   0   0  0  0
119  30   0  29   0   0  0  0
120 99769   0   0   0   0  0  0
121   1   0   0   0   0  0  1
122 200   0   0   0   0  0  0
123  30   0  30   0   0  0  0
124 99769   0   0   0   0  0  0
125   1   0   0   0   0  0  1
126 200   0   0   0   0  0  0
127  32   0  31   0   0  0  0
128 99767   0   0   0   0  0  0
129   1   0   0   0   0  0  1
130 200   0   0   0   0  0  0
131  32   0  32   0   0  0  0
132 99767   0   0   0   0  0  0
133   1   0   0   0   0  0  1
134 200   0   0   0   0  0  0
135  34   0  33   0   0  0  0
136 99765   0   0   0   0  0  0
137   1   0   0   0   0  0  1
138 200   0   0   0   0  0  0
139  34   0  34   0   0  0  0
140 99765   0   0   0   0  0  0
141   1   0   0   0   0  0  1
142 200   0   0   0   0  0  0
143  36   0  35   0   0  0  0
144 99763   0   0   0   0  0  0
145   1   0   0   0   0  0  1
146 200   0   0   0   0  0  0
147  36   0  36   0   0  0  0
148 99763   0   0   0   0  0  0
149   1   0   0   0   0  0  1
150 200   0   0   0   0  0  0
151  38   0  37   0   0  0  0
152 99761   0   0   0   0  0  0
153   1   0   0   0   0  0  1
154 200   0   0   0   0  0  0
155  38   0  38   0   0  0  0
156 99761   0   0   0   0  0  0
157   1   0   0   0   0  0  1
158 99999   0   0   0   0  0  0
159   1   0   0   0   0  0  1
160 99999   0   0   0   0  0  0
161   1   0   0   0   0  0  1
162 200   0   0   0   0  0  0
163   2   0   0  39   0  0  0
164 99797   0   0   0   0  0  0
165   1   0   0   0   0  0  1
166 200   0   0   0   0  0  0
167   2   0   0  40   0  0  0
168 99797   0   0   0   0  0  0
169   1   0   0   0   0  0  1
170 200   0   0   0   0  0  0
171   4   0   0  41   0  0  0
172 99795   0   0   0   0  0  0
173   1   0   0   0   0  0  1
174 200   0   0   0   0  0  0
175   4   0   0  42   0  0  0
176 99795   0   0   0   0  0  0
177   1   0   0   0   0  0  1
178 200   0   0   0   0  0  0
179   6   0   0  43   0  0  0
180 99793   0   0   0   0  0  0
181   1   0   0   0   0  0  1
182 200   0   0   0   0  0  0
183   6   0   0  44   0  0  0
184 99793   0   0   0   0  0  0
185   1   0   0   0   0  0  1
186 200   0   0   0   0  0  0
187   8   0   0  45   0  0  0
188 99791   0   0   0   0  0  0
189   1   0   0   0   0  0  1
190 200   0   0   0   0  0  0
191   8   0   0  46   0  0  0
192 99791   0   0   0   0  0  0
193   1   0   0   0   0  0  1
194 200   0   0   0   0  0  0
195  10   0   0  47   0  0  0
196 99789   0   0   0   0  0  0
197   1   0   0   0   0  0  1
198 200   0   0   0   0  0  0
199  10   0   0  48   0  0  0
200 99789   0   0   0   0  0  0
201   1   0   0   0   0  0  1
202 200   0   0   0   0  0  0
203  12   0   0  49   0  0  0
204 99787   0   0   0   0  0  0
205   1   0   0   0   0  0  1
206 200   0   0   0   0  0  0
207  12   0   0  50   0  0  0
208 99787   0   0   0   0  0  0
209   1   0   0   0   0  0  1
210 200   0   0   0   0  0  0
211  14   0   0  51   0  0  0
212 99785   0   0   0   0  0  0
213   1   0   0   0   0  0  1
214 200   0   0   0   0  0  0
215  14   0   0  52   0  0  0
216 99785   0   0   0   0  0  0
217   1   0   0   0   0  0  1
218 200   0   0   0   0  0  0
219  16   0   0  53   0  0  0
220 99783   0   0   0   0  0  0
221   1   0   0   0   0  0  1
222 200   0   0   0   0  0  0
223  16   0   0  54   0  0  0
224 99783   0   0   0   0  0  0
225   1   0   0   0   0  0  1
226 200   0   0   0   0  0  0
227  18   0   0  55   0  0  0
228 99781   0   0   0   0  0  0
229   1   0   0   0   0  0  1
230 200   0   0   0   0  0  0
231  18   0   0  56   0  0  0
232 99781   0   0   0   0  0  0
233   1   0   0   0   0  0  1
234 200   0   0   0   0  0  0
235  20   0   0  57   0  0  0
236 99779   0   0   0   0  0  0
237   1   0   0   0   0  0  1
238 200   0   0   0   0  0  0
239  20   0   0  58   0  0  0
240 99779   0   0   0   0  0  0
241   1   0   0   0   0  0  1
242 200   0   0   0   0  0  0
243  22   0   0  59   0  0  0
244 99777   0   0   0   0  0  0
245   1   0   0   0   0  0  1
246 200   0   0   0   0  0  0
247  22   0   0  60   0  0  0
248 99777   0   0   0   0  0  0
249   1   0   0   0   0  0  1
250 200   0   0   0   0  0  0
251  24   0   0  61   0  0  0
252 99775   0   0   0   0  0  0
253   1   0   0   0   0  0  1
254 200   0   0   0   0  0  0
255  24   0   0  62   0  0  0
256 99775   0   0   0   0  0  0
257   1   0   0   0   0  0  1
258 200   0   0   0   0  0  0
259  26   0   0  63   0  0  0
260 99773   0   0   0   0  0  0
261   1   0   0   0   0  0  1
262 200   0   0   0   0  0  0
263  26   0   0  64   0  0  0
264 99773   0   0   0   0  0  0
265   1   0   0   0   0  0  1
266 200   0   0   0   0  0  0
267  28   0   0  65   0  0  0
268 99771   0   0   0   0  0  0
269   1   0   0   0   0  0  1
270 200   0   0   0   0  0  0
271  28   0   0  66   0  0  0
272 99771   0   0   0   0  0  0
273   1   0   0   0   0  0  1
274 200   0   0   0   0  0  0
275  30   0   0  67   0  0  0
276 99769   0   0   0   0  0  0
277   1   0   0   0   0  0  1
278 200   0   0   0   0  0  0
279  30   0   0  68   0  0  0
280 99769   0   0   0   0  0  0
281   1   0   0   0   0  0  1
282 200   0   0   0   0  0  0
283  32   0   0  69   0  0  0
284 99767   0   0   0   0  0  0
285   1   0   0   0   0  0  1
286 200   0   0   0   0  0  0
287  32   0   0  70   0  0  0
288 99767   0   0   0   0  0  0
289   1   0   0   0   0  0  1
290 200   0   0   0   0  0  0
291  34   0   0  71   0  0  0
292 99765   0   0   0   0  0  0
293   1   0   0   0   0  0  1
294 200   0   0   0   0  0  0
295  34   0   0  72   0  0  0
296 99765   0   0   0   0  0  0
297   1   0   0   0   0  0  1
298 200   0   0   0   0  0  0
299  36   0   0  73   0  0  0
300 99763   0   0   0   0  0  0
301   1   0   0   0   0  0  1
302 200   0   0   0   0  0  0
303  36   0   0  74   0  0  0
304 99763   0   0   0   0  0  0
305   1   0   0   0   0  0  1
306 200   0   0   0   0  0  0
307  38   0   0  75   0  0  0
308 99761   0   0   0   0  0  0
309   1   0   0   0   0  0  1
310 200   0   0   0   0  0  0
311  38   0   0  76   0  0  0
312 99761   0   0   0   0  0  0
313   1   0   0   0   0  0  1
314 99999   0   0   0   0  0  0
315   1   0   0   0   0  0  1
316 99999   0   0   0   0  0  0
317   1   0   0   0   0  0  1
318 200   0   0   0   0  0  0
319   2   0   0   0  39  0  0
320 99797   0   0   0   0  0  0
321   1   0   0   0   0  0  1
322 200   0   0   0   0  0  0
323   2   0   0   0  40  0  0
324 99797   0   0   0   0  0  0
325   1   0   0   0   0  0  1
326 200   0   0   0   0  0  0
327   4   0   0   0  41  0  0
328 99795   0   0   0   0  0  0
329   1   0   0   0   0  0  1
330 200   0   0   0   0  0  0
331   4   0   0   0  42  0  0
332 99795   0   0   0   0  0  0
333   1   0   0   0   0  0  1
334 200   0   0   0   0  0  0
335   6   0   0   0  43  0  0
336 99793   0   0   0   0  0  0
337   1   0   0   0   0  0  1
338 200   0   0   0   0  0  0
339   6   0   0   0  44  0  0
340 99793   0   0   0   0  0  0
341   1   0   0   0   0  0  1
342 200   0   0   0   0  0  0
343   8   0   0   0  45  0  0
344 99791   0   0   0   0  0  0
345   1   0   0   0   0  0  1
346 200   0   0   0   0  0  0
347   8   0   0   0  46  0  0
348 99791   0   0   0   0  0  0
349   1   0   0   0   0  0  1
350 200   0   0   0   0  0  0
351  10   0   0   0  47  0  0
352 99789   0   0   0   0  0  0
353   1   0   0   0   0  0  1
354 200   0   0   0   0  0  0
355  10   0   0   0  48  0  0
356 99789   0   0   0   0  0  0
357   1   0   0   0   0  0  1
358 200   0   0   0   0  0  0
359  12   0   0   0  49  0  0
360 99787   0   0   0   0  0  0
361   1   0   0   0   0  0  1
362 200   0   0   0   0  0  0
363  12   0   0   0  50  0  0
364 99787   0   0   0   0  0  0
365   1   0   0   0   0  0  1
366 200   0   0   0   0  0  0
367  14   0   0   0  51  0  0
368 99785   0   0   0   0  0  0
369   1   0   0   0   0  0  1
370 200   0   0   0   0  0  0
371  14   0   0   0  52  0  0
372 99785   0   0   0   0  0  0
373   1   0   0   0   0  0  1
374 200   0   0   0   0  0  0
375  16   0   0   0  53  0  0
376 99783   0   0   0   0  0  0
377   1   0   0   0   0  0  1
378 200   0   0   0   0  0  0
379  16   0   0   0  54  0  0
380 99783   0   0   0   0  0  0
381   1   0   0   0   0  0  1
382 200   0   0   0   0  0  0
383  18   0   0   0  55  0  0
384 99781   0   0   0   0  0  0
385   1   0   0   0   0  0  1
386 200   0   0   0   0  0  0
387  18   0   0   0  56  0  0
388 99781   0   0   0   0  0  0
389   1   0   0   0   0  0  1
390 200   0   0   0   0  0  0
391  20   0   0   0  57  0  0
392 99779   0   0   0   0  0  0
393   1   0   0   0   0  0  1
394 200   0   0   0   0  0  0
395  20   0   0   0  58  0  0
396 99779   0   0   0   0  0  0
397   1   0   0   0   0  0  1
398 200   0   0   0   0  0  0
399  22   0   0   0  59  0  0
400 99777   0   0   0   0  0  0
401   1   0   0   0   0  0  1
402 200   0   0   0   0  0  0
403  22   0   0   0  60  0  0
404 99777   0   0   0   0  0  0
405   1   0   0   0   0  0  1
406 200   0   0   0   0  0  0
407  24   0   0   0  61  0  0
408 99775   0   0   0   0  0  0
409   1   0   0   0   0  0  1
410 200   0   0   0   0  0  0
411  24   0   0   0  62  0  0
412 99775   0   0   0   0  0  0
413   1   0   0   0   0  0  1
414 200   0   0   0   0  0  0
415  26   0   0   0  63  0  0
416 99773   0   0   0   0  0  0
417   1   0   0   0   0  0  1
418 200   0   0   0   0  0  0
419  26   0   0   0  64  0  0
420 99773   0   0   0   0  0  0
421   1   0   0   0   0  0  1
422 200   0   0   0   0  0  0
423  28   0   0   0  65  0  0
424 99771   0   0   0   0  0  0
425   1   0   0   0   0  0  1
426 200   0   0   0   0  0  0
427  28   0   0   0  66  0  0
428 99771   0   0   0   0  0  0
429   1   0   0   0   0  0  1
430 200   0   0   0   0  0  0
431  30   0   0   0  67  0  0
432 99769   0   0   0   0  0  0
433   1   0   0   0   0  0  1
434 200   0   0   0   0  0  0
435  30   0   0   0  68  0  0
436 99769   0   0   0   0  0  0
437   1   0   0   0   0  0  1
438 200   0   0   0   0  0  0
439  32   0   0   0  69  0  0
440 99767   0   0   0   0  0  0
441   1   0   0   0   0  0  1
442 200   0   0   0   0  0  0
443  32   0   0   0  70  0  0
444 99767   0   0   0   0  0  0
445   1   0   0   0   0  0  1
446 200   0   0   0   0  0  0
447  34   0   0   0  71  0  0
448 99765   0   0   0   0  0  0
449   1   0   0   0   0  0  1
450 200   0   0   0   0  0  0
451  34   0   0   0  72  0  0
452 99765   0   0   0   0  0  0
453   1   0   0   0   0  0  1
454 200   0   0   0   0  0  0
455  36   0   0   0  73  0  0
456 99763   0   0   0   0  0  0
457   1   0   0   0   0  0  1
458 200   0   0   0   0  0  0
459  36   0   0   0  74  0  0
460 99763   0   0   0   0  0  0
461   1   0   0   0   0  0  1
462 200   0   0   0   0  0  0
463  38   0   0   0  75  0  0
464 99761   0   0   0   0  0  0
465   1   0   0   0   0  0  1
466 200   0   0   0   0  0  0
467  38   0   0   0  76  0  0
468 99761   0   0   0   0  0  0
469   2   0  77   0   0  0  0

# Format of arbitrary gradients:
#   time_shape_id of 0 means default timing (stepping with grad_raster starting at 1/2 of grad_raster)
# id amplitude amp_shape_id time_shape_id delay
# ..      Hz/m       ..         ..          us
[GRADIENTS]
77            0 1 2 0

# Format of trapezoid gradients:
# id amplitude rise flat fall delay
# ..      Hz/m   us   us   us    us
[TRAP]
 1     -38318.4  10    0  10   0
 2     -76636.8  10    0  10   0
 3     -76636.8  20    0  20   0
 4      -153274  20    0  20   0
 5      -114955  30    0  30   0
 6      -229910  30    0  30   0
 7      -153274  40    0  40   0
 8      -306547  40    0  40   0
 9      -191592  50    0  50   0
10      -383184  50    0  50   0
11      -229910  60    0  60   0
12      -459821  60    0  60   0
13      -268229  70    0  70   0
14      -536458  70    0  70   0
15      -306547  80    0  80   0
16      -613094  80    0  80   0
17      -344866  90    0  90   0
18      -689731  90    0  90   0
19      -383184 100    0 100   0
20      -766368 100    0 100   0
21      -421502 110    0 110   0
22      -843005 110    0 110   0
23      -459821 120    0 120   0
24      -919642 120    0 120   0
25      -498139 130    0 130   0
26      -996278 130    0 130   0
27      -536458 140    0 140   0
28 -1.07292e+06 140    0 140   0
29      -574776 150    0 150   0
30 -1.14955e+06 150    0 150   0
31      -613094 160    0 160   0
32 -1.22619e+06 160    0 160   0
33      -651413 170    0 170   0
34 -1.30283e+06 170    0 170   0
35      -689731 180    0 180   0
36 -1.37946e+06 180    0 180   0
37      -728050 190    0 190   0
38  -1.4561e+06 190    0 190   0
39      38318.4  10    0  10   0
40      76636.8  10    0  10   0
41      76636.8  20    0  20   0
42       153274  20    0  20   0
43       114955  30    0  30   0
44       229910  30    0  30   0
45       153274  40    0  40   0
46       306547  40    0  40   0
47       191592  50    0  50   0
48       383184  50    0  50   0
49       229910  60    0  60   0
50       459821  60    0  60   0
51       268229  70    0  70   0
52       536458  70    0  70   0
53       306547  80    0  80   0
54       613094  80    0  80   0
55       344866  90    0  90   0
56       689731  90    0  90   0
57       383184 100    0 100   0
58       766368 100    0 100   0
59       421502 110    0 110   0
60       843005 110    0 110   0
61       459821 120    0 120   0
62       919642 120    0 120   0
63       498139 130    0 130   0
64       996278 130    0 130   0
65       536458 140    0 140   0
66  1.07292e+06 140    0 140   0
67       574776 150    0 150   0
68  1.14955e+06 150    0 150   0
69       613094 160    0 160   0
70  1.22619e+06 160    0 160   0
71       651413 170    0 170   0
72  1.30283e+06 170    0 170   0
73       689731 180    0 180   0
74  1.37946e+06 180    0 180   0
75       728050 190    0 190   0
76   1.4561e+06 190    0 190   0

# Format of extension lists:
# id type ref next_id
# next_id of 0 terminates the list
# Extension list is followed by extension specifications
[EXTENSIONS]
1 1 1 0

# Extension specification for digital output and input triggers:
# id type channel delay (us) duration (us)
extension TRIGGERS 1
1 1 3 0 10

# Sequence Shapes
[SHAPES]

shape_id 1
num_samples 2
0
0

shape_id 2
num_samples 2
0.5
1.5


[SIGNATURE]
# This is the hash of the Pulseq file, calculated right before the [SIGNATURE] section was added
# It can be reproduced/verified with md5sum if the file trimmed to the position right above [SIGNATURE]
# The new line character preceding [SIGNATURE] BELONGS to the signature (and needs to be sripped away for recalculating/verification)
Type md5
Hash 6ffdd86c99ce4d91a5c94b12bc8545c9
