# Pulseq sequence file
# Created by MATLAB mr toolbox

[VERSION]
major 1
minor 4
revision 1

[DEFINITIONS]
AdcRasterTime 1e-07 
AdcSampleTime 0.00014 
BlockDurationRaster 1e-05 
CameraAcqDuration 0.03418 
CameraAqDelay 0 
CameraInterleaveTR 0.198 
CameraNrDynamics 3186 
CameraNrSyncDynamics 0 
FOV 0.00526796783 0.00526796783 0.00526796783 
GradientRasterTime 1e-05 
Matrix 56 56 56 
Name gre3d 
RadiofrequencyRasterTime 1e-06 
TE 0.0133 0.02916 
TR 0.1 
TotalDuration 318.6 
TriggerToScannerAcqDelay 0.00926 
phaseDir_SCT 0 1 0 
readDir_SCT 1 0 0 
sliceDir_SCT 0 0 1 

# Format of blocks:
# NUM DUR RF  GX  GY  GZ  ADC  EXT
[BLOCKS]
    1  32   1   0   0   0  0  0
    2 120   0   0   0   0  0  0
    3 784   0   1   2   2  0  0
    4 828   0   3   0   0  1  4
    5 758   0   4   0   0  0  0
    6 828   0   3   0   0  1  8
    7 1568   0   5   6   6  0  0
    8 5082   0   0   0   0  0  0
    9  32   1   0   0   0  0  0
   10 120   0   0   0   0  0  0
   11 784   0   1   2   2  0  0
   12 828   0   3   0   0  1  4
   13 758   0   4   0   0  0  0
   14 828   0   3   0   0  1  8
   15 1568   0   5   6   6  0  0
   16 5082   0   0   0   0  0  0
   17  32   1   0   0   0  0  0
   18 120   0   0   0   0  0  0
   19 784   0   1   2   2  0  0
   20 828   0   3   0   0  1  4
   21 758   0   4   0   0  0  0
   22 828   0   3   0   0  1  8
   23 1568   0   5   6   6  0  0
   24 5082   0   0   0   0  0  0
   25  32   1   0   0   0  0  0
   26 120   0   0   0   0  0  0
   27 784   0   1   2   2  0  0
   28 828   0   3   0   0  1  4
   29 758   0   4   0   0  0  0
   30 828   0   3   0   0  1  8
   31 1568   0   5   6   6  0  0
   32 5082   0   0   0   0  0  0
   33  32   1   0   0   0  0  0
   34 120   0   0   0   0  0  0
   35 784   0   1   2   2  0  0
   36 828   0   3   0   0  1  4
   37 758   0   4   0   0  0  0
   38 828   0   3   0   0  1  8
   39 1568   0   5   6   6  0  0
   40 5082   0   0   0   0  0  0
   41  32   1   0   0   0  0  0
   42 120   0   0   0   0  0  0
   43 784   0   1   2   2  0  0
   44 828   0   3   0   0  1  4
   45 758   0   4   0   0  0  0
   46 828   0   3   0   0  1  8
   47 1568   0   5   6   6  0  0
   48 5082   0   0   0   0  0  0
   49  32   1   0   0   0  0  0
   50 120   0   0   0   0  0  0
   51 784   0   1   2   2  0  0
   52 828   0   3   0   0  1  4
   53 758   0   4   0   0  0  0
   54 828   0   3   0   0  1  8
   55 1568   0   5   6   6  0  0
   56 5082   0   0   0   0  0  0
   57  32   1   0   0   0  0  0
   58 120   0   0   0   0  0  0
   59 784   0   1   2   2  0  0
   60 828   0   3   0   0  1  4
   61 758   0   4   0   0  0  0
   62 828   0   3   0   0  1  8
   63 1568   0   5   6   6  0  0
   64 5082   0   0   0   0  0  0
   65  32   1   0   0   0  0  0
   66 120   0   0   0   0  0  0
   67 784   0   1   2   2  0  0
   68 828   0   3   0   0  1  4
   69 758   0   4   0   0  0  0
   70 828   0   3   0   0  1  8
   71 1568   0   5   6   6  0  0
   72 5082   0   0   0   0  0  0
   73  32   1   0   0   0  0  0
   74 120   0   0   0   0  0  0
   75 784   0   1   2   2  0  0
   76 828   0   3   0   0  1  4
   77 758   0   4   0   0  0  0
   78 828   0   3   0   0  1  8
   79 1568   0   5   6   6  0  0
   80 5082   0   0   0   0  0  0
   81  32   1   0   0   0  0  0
   82 120   0   0   0   0  0  0
   83 784   0   1   2   2  0  0
   84 828   0   3   0   0  1  4
   85 758   0   4   0   0  0  0
   86 828   0   3   0   0  1  8
   87 1568   0   5   6   6  0  0
   88 5082   0   0   0   0  0  0
   89  32   1   0   0   0  0  0
   90 120   0   0   0   0  0  0
   91 784   0   1   2   2  0  0
   92 828   0   3   0   0  1  4
   93 758   0   4   0   0  0  0
   94 828   0   3   0   0  1  8
   95 1568   0   5   6   6  0  0
   96 5082   0   0   0   0  0  0
   97  32   1   0   0   0  0  0
   98 120   0   0   0   0  0  0
   99 784   0   1   2   2  0  0
  100 828   0   3   0   0  1  4
  101 758   0   4   0   0  0  0
  102 828   0   3   0   0  1  8
  103 1568   0   5   6   6  0  0
  104 5082   0   0   0   0  0  0
  105  32   1   0   0   0  0  0
  106 120   0   0   0   0  0  0
  107 784   0   1   2   2  0  0
  108 828   0   3   0   0  1  4
  109 758   0   4   0   0  0  0
  110 828   0   3   0   0  1  8
  111 1568   0   5   6   6  0  0
  112 5082   0   0   0   0  0  0
  113  32   1   0   0   0  0  0
  114 120   0   0   0   0  0  0
  115 784   0   1   2   2  0  0
  116 828   0   3   0   0  1  4
  117 758   0   4   0   0  0  0
  118 828   0   3   0   0  1  8
  119 1568   0   5   6   6  0  0
  120 5082   0   0   0   0  0  0
  121  32   1   0   0   0  0  0
  122 120   0   0   0   0  0  0
  123 784   0   1   2   2  0  0
  124 828   0   3   0   0  1  4
  125 758   0   4   0   0  0  0
  126 828   0   3   0   0  1  8
  127 1568   0   5   6   6  0  0
  128 5082   0   0   0   0  0  0
  129  32   1   0   0   0  0  0
  130 120   0   0   0   0  0  0
  131 784   0   1   2   2  0  0
  132 828   0   3   0   0  1  4
  133 758   0   4   0   0  0  0
  134 828   0   3   0   0  1  8
  135 1568   0   5   6   6  0  0
  136 5082   0   0   0   0  0  0
  137  32   1   0   0   0  0  0
  138 120   0   0   0   0  0  0
  139 784   0   1   2   2  0  0
  140 828   0   3   0   0  1  4
  141 758   0   4   0   0  0  0
  142 828   0   3   0   0  1  8
  143 1568   0   5   6   6  0  0
  144 5082   0   0   0   0  0  0
  145  32   1   0   0   0  0  0
  146 120   0   0   0   0  0  0
  147 784   0   1   2   2  0  0
  148 828   0   3   0   0  1  4
  149 758   0   4   0   0  0  0
  150 828   0   3   0   0  1  8
  151 1568   0   5   6   6  0  0
  152 5082   0   0   0   0  0  0
  153  32   1   0   0   0  0  0
  154 120   0   0   0   0  0  0
  155 784   0   1   2   2  0  0
  156 828   0   3   0   0  1  4
  157 758   0   4   0   0  0  0
  158 828   0   3   0   0  1  8
  159 1568   0   5   6   6  0  0
  160 5082   0   0   0   0  0  0
  161  32   1   0   0   0  0  0
  162 120   0   0   0   0  0  0
  163 784   0   1   2   2  0  0
  164 828   0   3   0   0  1  4
  165 758   0   4   0   0  0  0
  166 828   0   3   0   0  1  8
  167 1568   0   5   6   6  0  0
  168 5082   0   0   0   0  0  0
  169  32   1   0   0   0  0  0
  170 120   0   0   0   0  0  0
  171 784   0   1   2   2  0  0
  172 828   0   3   0   0  1  4
  173 758   0   4   0   0  0  0
  174 828   0   3   0   0  1  8
  175 1568   0   5   6   6  0  0
  176 5082   0   0   0   0  0  0
  177  32   1   0   0   0  0  0
  178 120   0   0   0   0  0  0
  179 784   0   1   2   2  0  0
  180 828   0   3   0   0  1  4
  181 758   0   4   0   0  0  0
  182 828   0   3   0   0  1  8
  183 1568   0   5   6   6  0  0
  184 5082   0   0   0   0  0  0
  185  32   1   0   0   0  0  0
  186 120   0   0   0   0  0  0
  187 784   0   1   2   2  0  0
  188 828   0   3   0   0  1  4
  189 758   0   4   0   0  0  0
  190 828   0   3   0   0  1  8
  191 1568   0   5   6   6  0  0
  192 5082   0   0   0   0  0  0
  193  32   1   0   0   0  0  0
  194 120   0   0   0   0  0  0
  195 784   0   1   2   2  0  0
  196 828   0   3   0   0  1  4
  197 758   0   4   0   0  0  0
  198 828   0   3   0   0  1  8
  199 1568   0   5   6   6  0  0
  200 5082   0   0   0   0  0  0
  201  32   1   0   0   0  0  0
  202 120   0   0   0   0  0  0
  203 784   0   1   2   2  0  0
  204 828   0   3   0   0  1  4
  205 758   0   4   0   0  0  0
  206 828   0   3   0   0  1  8
  207 1568   0   5   6   6  0  0
  208 5082   0   0   0   0  0  0
  209  32   1   0   0   0  0  0
  210 120   0   0   0   0  0  0
  211 784   0   1   2   2  0  0
  212 828   0   3   0   0  1  4
  213 758   0   4   0   0  0  0
  214 828   0   3   0   0  1  8
  215 1568   0   5   6   6  0  0
  216 5082   0   0   0   0  0  0
  217  32   1   0   0   0  0  0
  218 120   0   0   0   0  0  0
  219 784   0   1   2   2  0  0
  220 828   0   3   0   0  1  4
  221 758   0   4   0   0  0  0
  222 828   0   3   0   0  1  8
  223 1568   0   5   6   6  0  0
  224 5082   0   0   0   0  0  0
  225  32   1   0   0   0  0  0
  226 120   0   0   0   0  0  0
  227 784   0   1   2   2  0  0
  228 828   0   3   0   0  1  4
  229 758   0   4   0   0  0  0
  230 828   0   3   0   0  1  8
  231 1568   0   5   6   6  0  0
  232 5082   0   0   0   0  0  0
  233  32   1   0   0   0  0  0
  234 120   0   0   0   0  0  0
  235 784   0   1   2   2  0  0
  236 828   0   3   0   0  1  4
  237 758   0   4   0   0  0  0
  238 828   0   3   0   0  1  8
  239 1568   0   5   6   6  0  0
  240 5082   0   0   0   0  0  0
  241  32   1   0   0   0  0  0
  242 120   0   0   0   0  0  0
  243 784   0   1   2   2  0  0
  244 828   0   3   0   0  1  4
  245 758   0   4   0   0  0  0
  246 828   0   3   0   0  1  8
  247 1568   0   5   6   6  0  0
  248 5082   0   0   0   0  0  0
  249  32   1   0   0   0  0  0
  250 120   0   0   0   0  0  0
  251 784   0   1   2   2  0  0
  252 828   0   3   0   0  1  4
  253 758   0   4   0   0  0  0
  254 828   0   3   0   0  1  8
  255 1568   0   5   6   6  0  0
  256 5082   0   0   0   0  0  0
  257  32   1   0   0   0  0  0
  258 120   0   0   0   0  0  0
  259 784   0   1   2   2  0  0
  260 828   0   3   0   0  1  4
  261 758   0   4   0   0  0  0
  262 828   0   3   0   0  1  8
  263 1568   0   5   6   6  0  0
  264 5082   0   0   0   0  0  0
  265  32   1   0   0   0  0  0
  266 120   0   0   0   0  0  0
  267 784   0   1   2   2  0  0
  268 828   0   3   0   0  1  4
  269 758   0   4   0   0  0  0
  270 828   0   3   0   0  1  8
  271 1568   0   5   6   6  0  0
  272 5082   0   0   0   0  0  0
  273  32   1   0   0   0  0  0
  274 120   0   0   0   0  0  0
  275 784   0   1   2   2  0  0
  276 828   0   3   0   0  1  4
  277 758   0   4   0   0  0  0
  278 828   0   3   0   0  1  8
  279 1568   0   5   6   6  0  0
  280 5082   0   0   0   0  0  0
  281  32   1   0   0   0  0  0
  282 120   0   0   0   0  0  0
  283 784   0   1   2   2  0  0
  284 828   0   3   0   0  1  4
  285 758   0   4   0   0  0  0
  286 828   0   3   0   0  1  8
  287 1568   0   5   6   6  0  0
  288 5082   0   0   0   0  0  0
  289  32   1   0   0   0  0  0
  290 120   0   0   0   0  0  0
[RF]
1      13.8889 1 2 3 100 0 3.45575
2      13.8889 1 2 3 100 0 1.88496
3      13.8889 1 2 3 100 0 3.76991
4      13.8889 1 2 3 100 0 0.942478
5      13.8889 1 2 3 100 0 2.51327
6      13.8889 1 2 3 100 0 5.34071
7      13.8889 1 2 3 100 0 0.314159
8      13.8889 1 2 3 100 0 5.65487
9      13.8889 1 2 3 100 0 2.19911
10      13.8889 1 2 3 100 0 5.02655
11      13.8889 1 2 3 100 0 4.08407
12      13.8889 1 2 3 100 0 0.628319

# Format of trapezoid gradients:
# id amplitude rise flat fall delay
# ..      Hz/m   us   us   us    us
[TRAP]
 1      -707810 120 7600 120   0
 2            0  10 7820  10   0
 3   1.3559e+06 220 7840 220   0
 4 -1.48891e+06 240 7100 240   0
 5       701900 110 15460 110   0
 6           -0  10 7820  10   0
 7       663042 110 7620 110   0
 8      -663042 110 7620 110   0
 9       637660 100 7640 100   0
10      -637660 100 7640 100   0
11       613135 100 7640 100   0
12      -613135 100 7640 100   0
13       588609 100 7640 100   0
14      -588609 100 7640 100   0
15       563356  90 7660  90   0
16      -563356  90 7660  90   0
17       538862  90 7660  90   0
18      -538862  90 7660  90   0
19       514369  90 7660  90   0
20      -514369  90 7660  90   0
21       489244  80 7680  80   0
22      -489244  80 7680  80   0
23       464781  80 7680  80   0
24      -464781  80 7680  80   0
25       439753  70 7700  70   0
26      -439753  70 7700  70   0
27       415322  70 7700  70   0
28      -415322  70 7700  70   0
29       390891  70 7700  70   0
30      -390891  70 7700  70   0
31       365989  60 7720  60   0
32      -365989  60 7720  60   0
33       341590  60 7720  60   0
34      -341590  60 7720  60   0
35       316784  50 7740  50   0
36      -316784  50 7740  50   0
37       292416  50 7740  50   0
38      -292416  50 7740  50   0
39       268048  50 7740  50   0
40      -268048  50 7740  50   0
41       243367  40 7760  40   0
42      -243367  40 7760  40   0
43       219031  40 7760  40   0
44      -219031  40 7760  40   0
45       194694  40 7760  40   0
46      -194694  40 7760  40   0
47       170139  30 7780  30   0
48      -170139  30 7780  30   0
49       145833  30 7780  30   0
50      -145833  30 7780  30   0
51       121372  20 7800  20   0
52      -121372  20 7800  20   0
53        97098  20 7800  20   0
54       -97098  20 7800  20   0
55      72823.5  20 7800  20   0
56     -72823.5  20 7800  20   0
57        48487  10 7820  10   0
58       -48487  10 7820  10   0
59      24243.5  10 7820  10   0
60     -24243.5  10 7820  10   0
61      -687599 110 7620 110   0
62       687599 110 7620 110   0

# Format of ADC events:
# id num dwell delay freq phase
# ..  ..    ns    us   Hz   rad
[ADC]
1 56 140000 220 0 3.45575
2 56 140000 220 0 1.88496
3 56 140000 220 0 3.76991
4 56 140000 220 0 0.942478
5 56 140000 220 0 2.51327
6 56 140000 220 0 5.34071
7 56 140000 220 0 0.314159
8 56 140000 220 0 5.65487
9 56 140000 220 0 2.19911
10 56 140000 220 0 5.02655
11 56 140000 220 0 4.08407
12 56 140000 220 0 0.628319

# Format of extension lists:
# id type ref next_id
# next_id of 0 terminates the list
# Extension list is followed by extension specifications
[EXTENSIONS]
1 1 1 0
2 1 2 1
3 1 3 2
4 1 4 3
5 1 2 0
6 1 3 5
7 1 4 6
8 1 5 7
9 2 1 0
10 1 4 1
11 1 6 10
12 1 7 11
13 1 4 0
14 1 5 13
15 1 6 14
16 1 7 15
17 1 7 10
18 1 8 17
19 1 7 14
20 1 8 19
21 1 9 17
22 1 9 19
23 1 10 17
24 1 10 19
25 1 11 17
26 1 11 19
27 1 12 17
28 1 12 19
29 1 13 17
30 1 13 19
31 1 14 17
32 1 14 19
33 1 15 17
34 1 15 19
35 1 16 17
36 1 16 19
37 1 17 17
38 1 17 19
39 1 18 17
40 1 18 19
41 1 19 17
42 1 19 19
43 1 20 17
44 1 20 19
45 1 21 17
46 1 21 19
47 1 22 17
48 1 22 19
49 1 23 17
50 1 23 19
51 1 24 17
52 1 24 19
53 1 25 17
54 1 25 19
55 1 26 17
56 1 26 19
57 1 27 17
58 1 27 19
59 1 28 17
60 1 28 19
61 1 29 17
62 1 29 19
63 1 30 17
64 1 30 19
65 1 31 17
66 1 31 19
67 1 32 17
68 1 32 19
69 1 33 17
70 1 33 19
71 1 4 2
72 1 7 71
73 1 4 5
74 1 5 73
75 1 7 74
76 1 34 17
77 1 34 19
78 1 35 17
79 1 35 19
80 1 36 17
81 1 36 19
82 1 37 17
83 1 37 19
84 1 38 17
85 1 38 19
86 1 39 17
87 1 39 19
88 1 40 17
89 1 40 19
90 1 41 17
91 1 41 19
92 1 42 17
93 1 42 19
94 1 43 17
95 1 43 19
96 1 44 17
97 1 44 19
98 1 45 17
99 1 45 19
100 1 46 17
101 1 46 19
102 1 47 17
103 1 47 19
104 1 48 17
105 1 48 19
106 1 49 17
107 1 49 19
108 1 50 17
109 1 50 19
110 1 51 17
111 1 51 19
112 1 52 17
113 1 52 19
114 1 53 17
115 1 53 19
116 1 54 17
117 1 54 19
118 1 55 17
119 1 55 19
120 1 56 17
121 1 56 19
122 1 57 17
123 1 57 19
124 1 58 17
125 1 58 19
126 1 59 17
127 1 59 19
128 1 60 17
129 1 60 19
130 1 61 17
131 1 61 19
132 1 62 11
133 1 62 15
134 1 8 10
135 1 62 134
136 1 8 14
137 1 62 136
138 1 9 10
139 1 62 138
140 1 9 14
141 1 62 140
142 1 10 10
143 1 62 142
144 1 10 14
145 1 62 144
146 1 11 10
147 1 62 146
148 1 11 14
149 1 62 148
150 1 12 10
151 1 62 150
152 1 12 14
153 1 62 152
154 1 13 10
155 1 62 154
156 1 13 14
157 1 62 156
158 1 14 10
159 1 62 158
160 1 14 14
161 1 62 160
162 1 15 10
163 1 62 162
164 1 15 14
165 1 62 164
166 1 16 10
167 1 62 166
168 1 16 14
169 1 62 168
170 1 17 10
171 1 62 170
172 1 17 14
173 1 62 172
174 1 18 10
175 1 62 174
176 1 18 14
177 1 62 176
178 1 19 10
179 1 62 178
180 1 19 14
181 1 62 180
182 1 20 10
183 1 62 182
184 1 20 14
185 1 62 184
186 1 21 10
187 1 62 186
188 1 21 14
189 1 62 188
190 1 22 10
191 1 62 190
192 1 22 14
193 1 62 192
194 1 23 10
195 1 62 194
196 1 23 14
197 1 62 196
198 1 24 10
199 1 62 198
200 1 24 14
201 1 62 200
202 1 25 10
203 1 62 202
204 1 25 14
205 1 62 204
206 1 26 10
207 1 62 206
208 1 26 14
209 1 62 208
210 1 27 10
211 1 62 210
212 1 27 14
213 1 62 212
214 1 28 10
215 1 62 214
216 1 28 14
217 1 62 216
218 1 29 10
219 1 62 218
220 1 29 14
221 1 62 220
222 1 30 10
223 1 62 222
224 1 30 14
225 1 62 224
226 1 31 10
227 1 62 226
228 1 31 14
229 1 62 228
230 1 32 10
231 1 62 230
232 1 32 14
233 1 62 232
234 1 33 10
235 1 62 234
236 1 33 14
237 1 62 236
238 1 62 71
239 1 62 74
240 1 34 10
241 1 62 240
242 1 34 14
243 1 62 242
244 1 35 10
245 1 62 244
246 1 35 14
247 1 62 246
248 1 36 10
249 1 62 248
250 1 36 14
251 1 62 250
252 1 37 10
253 1 62 252
254 1 37 14
255 1 62 254
256 1 38 10
257 1 62 256
258 1 38 14
259 1 62 258
260 1 39 10
261 1 62 260
262 1 39 14
263 1 62 262
264 1 40 10
265 1 62 264
266 1 40 14
267 1 62 266
268 1 41 10
269 1 62 268
270 1 41 14
271 1 62 270
272 1 42 10
273 1 62 272
274 1 42 14
275 1 62 274
276 1 43 10
277 1 62 276
278 1 43 14
279 1 62 278
280 1 44 10
281 1 62 280
282 1 44 14
283 1 62 282
284 1 45 10
285 1 62 284
286 1 45 14
287 1 62 286
288 1 46 10
289 1 62 288
290 1 46 14
291 1 62 290
292 1 47 10
293 1 62 292
294 1 47 14
295 1 62 294
296 1 48 10
297 1 62 296
298 1 48 14
299 1 62 298
300 1 49 10
301 1 62 300
302 1 49 14
303 1 62 302
304 1 50 10
305 1 62 304
306 1 50 14
307 1 62 306
308 1 51 10
309 1 62 308
310 1 51 14
311 1 62 310
312 1 52 10
313 1 62 312
314 1 52 14
315 1 62 314
316 1 53 10
317 1 62 316
318 1 53 14
319 1 62 318
320 1 54 10
321 1 62 320
322 1 54 14
323 1 62 322
324 1 55 10
325 1 62 324
326 1 55 14
327 1 62 326
328 1 56 10
329 1 62 328
330 1 56 14
331 1 62 330
332 1 57 10
333 1 62 332
334 1 57 14
335 1 62 334
336 1 58 10
337 1 62 336
338 1 58 14
339 1 62 338
340 1 59 10
341 1 62 340
342 1 59 14
343 1 62 342
344 1 60 10
345 1 62 344
346 1 60 14
347 1 62 346
348 1 61 10
349 1 62 348
350 1 61 14
351 1 62 350
352 1 63 11
353 1 63 15
354 1 63 134
355 1 63 136
356 1 63 138
357 1 63 140
358 1 63 142
359 1 63 144
360 1 63 146
361 1 63 148
362 1 63 150
363 1 63 152
364 1 63 154
365 1 63 156
366 1 63 158
367 1 63 160
368 1 63 162
369 1 63 164
370 1 63 166
371 1 63 168
372 1 63 170
373 1 63 172
374 1 63 174
375 1 63 176
376 1 63 178
377 1 63 180
378 1 63 182
379 1 63 184
380 1 63 186
381 1 63 188
382 1 63 190
383 1 63 192
384 1 63 194
385 1 63 196
386 1 63 198
387 1 63 200
388 1 63 202
389 1 63 204
390 1 63 206
391 1 63 208
392 1 63 210
393 1 63 212
394 1 63 214
395 1 63 216
396 1 63 218
397 1 63 220
398 1 63 222
399 1 63 224
400 1 63 226
401 1 63 228
402 1 63 230
403 1 63 232
404 1 63 234
405 1 63 236
406 1 63 71
407 1 63 74
408 1 63 240
409 1 63 242
410 1 63 244
411 1 63 246
412 1 63 248
413 1 63 250
414 1 63 252
415 1 63 254
416 1 63 256
417 1 63 258
418 1 63 260
419 1 63 262
420 1 63 264
421 1 63 266
422 1 63 268
423 1 63 270
424 1 63 272
425 1 63 274
426 1 63 276
427 1 63 278
428 1 63 280
429 1 63 282
430 1 63 284
431 1 63 286
432 1 63 288
433 1 63 290
434 1 63 292
435 1 63 294
436 1 63 296
437 1 63 298
438 1 63 300
439 1 63 302
440 1 63 304
441 1 63 306
442 1 63 308
443 1 63 310
444 1 63 312
445 1 63 314
446 1 63 316
447 1 63 318
448 1 63 320
449 1 63 322
450 1 63 324
451 1 63 326
452 1 63 328
453 1 63 330
454 1 63 332
455 1 63 334
456 1 63 336
457 1 63 338
458 1 63 340
459 1 63 342
460 1 63 344
461 1 63 346
462 1 63 348
463 1 63 350
464 1 64 11
465 1 64 15
466 1 64 134
467 1 64 136
468 1 64 138
469 1 64 140
470 1 64 142
471 1 64 144
472 1 64 146
473 1 64 148
474 1 64 150
475 1 64 152
476 1 64 154
477 1 64 156
478 1 64 158
479 1 64 160
480 1 64 162
481 1 64 164
482 1 64 166
483 1 64 168
484 1 64 170
485 1 64 172
486 1 64 174
487 1 64 176
488 1 64 178
489 1 64 180
490 1 64 182
491 1 64 184
492 1 64 186
493 1 64 188
494 1 64 190
495 1 64 192
496 1 64 194
497 1 64 196
498 1 64 198
499 1 64 200
500 1 64 202
501 1 64 204
502 1 64 206
503 1 64 208
504 1 64 210
505 1 64 212
506 1 64 214
507 1 64 216
508 1 64 218
509 1 64 220
510 1 64 222
511 1 64 224
512 1 64 226
513 1 64 228
514 1 64 230
515 1 64 232
516 1 64 234
517 1 64 236
518 1 64 71
519 1 64 74
520 1 64 240
521 1 64 242
522 1 64 244
523 1 64 246
524 1 64 248
525 1 64 250
526 1 64 252
527 1 64 254
528 1 64 256
529 1 64 258
530 1 64 260
531 1 64 262
532 1 64 264
533 1 64 266
534 1 64 268
535 1 64 270
536 1 64 272
537 1 64 274
538 1 64 276
539 1 64 278
540 1 64 280
541 1 64 282
542 1 64 284
543 1 64 286
544 1 64 288
545 1 64 290
546 1 64 292
547 1 64 294
548 1 64 296
549 1 64 298
550 1 64 300
551 1 64 302
552 1 64 304
553 1 64 306
554 1 64 308
555 1 64 310
556 1 64 312
557 1 64 314
558 1 64 316
559 1 64 318
560 1 64 320
561 1 64 322
562 1 64 324
563 1 64 326
564 1 64 328
565 1 64 330
566 1 64 332
567 1 64 334
568 1 64 336
569 1 64 338
570 1 64 340
571 1 64 342
572 1 64 344
573 1 64 346
574 1 64 348
575 1 64 350
576 1 65 11
577 1 65 15
578 1 65 134
579 1 65 136
580 1 65 138
581 1 65 140
582 1 65 142
583 1 65 144
584 1 65 146
585 1 65 148
586 1 65 150
587 1 65 152
588 1 65 154
589 1 65 156
590 1 65 158
591 1 65 160
592 1 65 162
593 1 65 164
594 1 65 166
595 1 65 168
596 1 65 170
597 1 65 172
598 1 65 174
599 1 65 176
600 1 65 178
601 1 65 180
602 1 65 182
603 1 65 184
604 1 65 186
605 1 65 188
606 1 65 190
607 1 65 192
608 1 65 194
609 1 65 196
610 1 65 198
611 1 65 200
612 1 65 202
613 1 65 204
614 1 65 206
615 1 65 208
616 1 65 210
617 1 65 212
618 1 65 214
619 1 65 216
620 1 65 218
621 1 65 220
622 1 65 222
623 1 65 224
624 1 65 226
625 1 65 228
626 1 65 230
627 1 65 232
628 1 65 234
629 1 65 236
630 1 65 71
631 1 65 74
632 1 65 240
633 1 65 242
634 1 65 244
635 1 65 246
636 1 65 248
637 1 65 250
638 1 65 252
639 1 65 254
640 1 65 256
641 1 65 258
642 1 65 260
643 1 65 262
644 1 65 264
645 1 65 266
646 1 65 268
647 1 65 270
648 1 65 272
649 1 65 274
650 1 65 276
651 1 65 278
652 1 65 280
653 1 65 282
654 1 65 284
655 1 65 286
656 1 65 288
657 1 65 290
658 1 65 292
659 1 65 294
660 1 65 296
661 1 65 298
662 1 65 300
663 1 65 302
664 1 65 304
665 1 65 306
666 1 65 308
667 1 65 310
668 1 65 312
669 1 65 314
670 1 65 316
671 1 65 318
672 1 65 320
673 1 65 322
674 1 65 324
675 1 65 326
676 1 65 328
677 1 65 330
678 1 65 332
679 1 65 334
680 1 65 336
681 1 65 338
682 1 65 340
683 1 65 342
684 1 65 344
685 1 65 346
686 1 65 348
687 1 65 350
688 1 66 11
689 1 66 15
690 1 66 134
691 1 66 136
692 1 66 138
693 1 66 140
694 1 66 142
695 1 66 144
696 1 66 146
697 1 66 148
698 1 66 150
699 1 66 152
700 1 66 154
701 1 66 156
702 1 66 158
703 1 66 160
704 1 66 162
705 1 66 164
706 1 66 166
707 1 66 168
708 1 66 170
709 1 66 172
710 1 66 174
711 1 66 176
712 1 66 178
713 1 66 180
714 1 66 182
715 1 66 184
716 1 66 186
717 1 66 188
718 1 66 190
719 1 66 192
720 1 66 194
721 1 66 196
722 1 66 198
723 1 66 200
724 1 66 202
725 1 66 204
726 1 66 206
727 1 66 208
728 1 66 210
729 1 66 212
730 1 66 214
731 1 66 216
732 1 66 218
733 1 66 220
734 1 66 222
735 1 66 224
736 1 66 226
737 1 66 228
738 1 66 230
739 1 66 232
740 1 66 234
741 1 66 236
742 1 66 71
743 1 66 74
744 1 66 240
745 1 66 242
746 1 66 244
747 1 66 246
748 1 66 248
749 1 66 250
750 1 66 252
751 1 66 254
752 1 66 256
753 1 66 258
754 1 66 260
755 1 66 262
756 1 66 264
757 1 66 266
758 1 66 268
759 1 66 270
760 1 66 272
761 1 66 274
762 1 66 276
763 1 66 278
764 1 66 280
765 1 66 282
766 1 66 284
767 1 66 286
768 1 66 288
769 1 66 290
770 1 66 292
771 1 66 294
772 1 66 296
773 1 66 298
774 1 66 300
775 1 66 302
776 1 66 304
777 1 66 306
778 1 66 308
779 1 66 310
780 1 66 312
781 1 66 314
782 1 66 316
783 1 66 318
784 1 66 320
785 1 66 322
786 1 66 324
787 1 66 326
788 1 66 328
789 1 66 330
790 1 66 332
791 1 66 334
792 1 66 336
793 1 66 338
794 1 66 340
795 1 66 342
796 1 66 344
797 1 66 346
798 1 66 348
799 1 66 350
800 1 67 11
801 1 67 15
802 1 67 134
803 1 67 136
804 1 67 138
805 1 67 140
806 1 67 142
807 1 67 144
808 1 67 146
809 1 67 148
810 1 67 150
811 1 67 152
812 1 67 154
813 1 67 156
814 1 67 158
815 1 67 160
816 1 67 162
817 1 67 164
818 1 67 166
819 1 67 168
820 1 67 170
821 1 67 172
822 1 67 174
823 1 67 176
824 1 67 178
825 1 67 180
826 1 67 182
827 1 67 184
828 1 67 186
829 1 67 188
830 1 67 190
831 1 67 192
832 1 67 194
833 1 67 196
834 1 67 198
835 1 67 200
836 1 67 202
837 1 67 204
838 1 67 206
839 1 67 208
840 1 67 210
841 1 67 212
842 1 67 214
843 1 67 216
844 1 67 218
845 1 67 220
846 1 67 222
847 1 67 224
848 1 67 226
849 1 67 228
850 1 67 230
851 1 67 232
852 1 67 234
853 1 67 236
854 1 67 71
855 1 67 74
856 1 67 240
857 1 67 242
858 1 67 244
859 1 67 246
860 1 67 248
861 1 67 250
862 1 67 252
863 1 67 254
864 1 67 256
865 1 67 258
866 1 67 260
867 1 67 262
868 1 67 264
869 1 67 266
870 1 67 268
871 1 67 270
872 1 67 272
873 1 67 274
874 1 67 276
875 1 67 278
876 1 67 280
877 1 67 282
878 1 67 284
879 1 67 286
880 1 67 288
881 1 67 290
882 1 67 292
883 1 67 294
884 1 67 296
885 1 67 298
886 1 67 300
887 1 67 302
888 1 67 304
889 1 67 306
890 1 67 308
891 1 67 310
892 1 67 312
893 1 67 314
894 1 67 316
895 1 67 318
896 1 67 320
897 1 67 322
898 1 67 324
899 1 67 326
900 1 67 328
901 1 67 330
902 1 67 332
903 1 67 334
904 1 67 336
905 1 67 338
906 1 67 340
907 1 67 342
908 1 67 344
909 1 67 346
910 1 67 348
911 1 67 350
912 1 68 11
913 1 68 15
914 1 68 134
915 1 68 136
916 1 68 138
917 1 68 140
918 1 68 142
919 1 68 144
920 1 68 146
921 1 68 148
922 1 68 150
923 1 68 152
924 1 68 154
925 1 68 156
926 1 68 158
927 1 68 160
928 1 68 162
929 1 68 164
930 1 68 166
931 1 68 168
932 1 68 170
933 1 68 172
934 1 68 174
935 1 68 176
936 1 68 178
937 1 68 180
938 1 68 182
939 1 68 184
940 1 68 186
941 1 68 188
942 1 68 190
943 1 68 192
944 1 68 194
945 1 68 196
946 1 68 198
947 1 68 200
948 1 68 202
949 1 68 204
950 1 68 206
951 1 68 208
952 1 68 210
953 1 68 212
954 1 68 214
955 1 68 216
956 1 68 218
957 1 68 220
958 1 68 222
959 1 68 224
960 1 68 226
961 1 68 228
962 1 68 230
963 1 68 232
964 1 68 234
965 1 68 236
966 1 68 71
967 1 68 74
968 1 68 240
969 1 68 242
970 1 68 244
971 1 68 246
972 1 68 248
973 1 68 250
974 1 68 252
975 1 68 254
976 1 68 256
977 1 68 258
978 1 68 260
979 1 68 262
980 1 68 264
981 1 68 266
982 1 68 268
983 1 68 270
984 1 68 272
985 1 68 274
986 1 68 276
987 1 68 278
988 1 68 280
989 1 68 282
990 1 68 284
991 1 68 286
992 1 68 288
993 1 68 290
994 1 68 292
995 1 68 294
996 1 68 296
997 1 68 298
998 1 68 300
999 1 68 302
1000 1 68 304
1001 1 68 306
1002 1 68 308
1003 1 68 310
1004 1 68 312
1005 1 68 314
1006 1 68 316
1007 1 68 318
1008 1 68 320
1009 1 68 322
1010 1 68 324
1011 1 68 326
1012 1 68 328
1013 1 68 330
1014 1 68 332
1015 1 68 334
1016 1 68 336
1017 1 68 338
1018 1 68 340
1019 1 68 342
1020 1 68 344
1021 1 68 346
1022 1 68 348
1023 1 68 350
1024 1 69 11
1025 1 69 15
1026 1 69 134
1027 1 69 136
1028 1 69 138
1029 1 69 140
1030 1 69 142
1031 1 69 144
1032 1 69 146
1033 1 69 148
1034 1 69 150
1035 1 69 152
1036 1 69 154
1037 1 69 156
1038 1 69 158
1039 1 69 160
1040 1 69 162
1041 1 69 164
1042 1 69 166
1043 1 69 168
1044 1 69 170
1045 1 69 172
1046 1 69 174
1047 1 69 176
1048 1 69 178
1049 1 69 180
1050 1 69 182
1051 1 69 184
1052 1 69 186
1053 1 69 188
1054 1 69 190
1055 1 69 192
1056 1 69 194
1057 1 69 196
1058 1 69 198
1059 1 69 200
1060 1 69 202
1061 1 69 204
1062 1 69 206
1063 1 69 208
1064 1 69 210
1065 1 69 212
1066 1 69 214
1067 1 69 216
1068 1 69 218
1069 1 69 220
1070 1 69 222
1071 1 69 224
1072 1 69 226
1073 1 69 228
1074 1 69 230
1075 1 69 232
1076 1 69 234
1077 1 69 236
1078 1 69 71
1079 1 69 74
1080 1 69 240
1081 1 69 242
1082 1 69 244
1083 1 69 246
1084 1 69 248
1085 1 69 250
1086 1 69 252
1087 1 69 254
1088 1 69 256
1089 1 69 258
1090 1 69 260
1091 1 69 262
1092 1 69 264
1093 1 69 266
1094 1 69 268
1095 1 69 270
1096 1 69 272
1097 1 69 274
1098 1 69 276
1099 1 69 278
1100 1 69 280
1101 1 69 282
1102 1 69 284
1103 1 69 286
1104 1 69 288
1105 1 69 290
1106 1 69 292
1107 1 69 294
1108 1 69 296
1109 1 69 298
1110 1 69 300
1111 1 69 302
1112 1 69 304
1113 1 69 306
1114 1 69 308
1115 1 69 310
1116 1 69 312
1117 1 69 314
1118 1 69 316
1119 1 69 318
1120 1 69 320
1121 1 69 322
1122 1 69 324
1123 1 69 326
1124 1 69 328
1125 1 69 330
1126 1 69 332
1127 1 69 334
1128 1 69 336
1129 1 69 338
1130 1 69 340
1131 1 69 342
1132 1 69 344
1133 1 69 346
1134 1 69 348
1135 1 69 350
1136 1 70 11
1137 1 70 15
1138 1 70 134
1139 1 70 136
1140 1 70 138
1141 1 70 140
1142 1 70 142
1143 1 70 144
1144 1 70 146
1145 1 70 148
1146 1 70 150
1147 1 70 152
1148 1 70 154
1149 1 70 156
1150 1 70 158
1151 1 70 160
1152 1 70 162
1153 1 70 164
1154 1 70 166
1155 1 70 168
1156 1 70 170
1157 1 70 172
1158 1 70 174
1159 1 70 176
1160 1 70 178
1161 1 70 180
1162 1 70 182
1163 1 70 184
1164 1 70 186
1165 1 70 188
1166 1 70 190
1167 1 70 192
1168 1 70 194
1169 1 70 196
1170 1 70 198
1171 1 70 200
1172 1 70 202
1173 1 70 204
1174 1 70 206
1175 1 70 208
1176 1 70 210
1177 1 70 212
1178 1 70 214
1179 1 70 216
1180 1 70 218
1181 1 70 220
1182 1 70 222
1183 1 70 224
1184 1 70 226
1185 1 70 228
1186 1 70 230
1187 1 70 232
1188 1 70 234
1189 1 70 236
1190 1 70 71
1191 1 70 74
1192 1 70 240
1193 1 70 242
1194 1 70 244
1195 1 70 246
1196 1 70 248
1197 1 70 250
1198 1 70 252
1199 1 70 254
1200 1 70 256
1201 1 70 258
1202 1 70 260
1203 1 70 262
1204 1 70 264
1205 1 70 266
1206 1 70 268
1207 1 70 270
1208 1 70 272
1209 1 70 274
1210 1 70 276
1211 1 70 278
1212 1 70 280
1213 1 70 282
1214 1 70 284
1215 1 70 286
1216 1 70 288
1217 1 70 290
1218 1 70 292
1219 1 70 294
1220 1 70 296
1221 1 70 298
1222 1 70 300
1223 1 70 302
1224 1 70 304
1225 1 70 306
1226 1 70 308
1227 1 70 310
1228 1 70 312
1229 1 70 314
1230 1 70 316
1231 1 70 318
1232 1 70 320
1233 1 70 322
1234 1 70 324
1235 1 70 326
1236 1 70 328
1237 1 70 330
1238 1 70 332
1239 1 70 334
1240 1 70 336
1241 1 70 338
1242 1 70 340
1243 1 70 342
1244 1 70 344
1245 1 70 346
1246 1 70 348
1247 1 70 350
1248 1 71 11
1249 1 71 15
1250 1 71 134
1251 1 71 136
1252 1 71 138
1253 1 71 140
1254 1 71 142
1255 1 71 144
1256 1 71 146
1257 1 71 148
1258 1 71 150
1259 1 71 152
1260 1 71 154
1261 1 71 156
1262 1 71 158
1263 1 71 160
1264 1 71 162
1265 1 71 164
1266 1 71 166
1267 1 71 168
1268 1 71 170
1269 1 71 172
1270 1 71 174
1271 1 71 176
1272 1 71 178
1273 1 71 180
1274 1 71 182
1275 1 71 184
1276 1 71 186
1277 1 71 188
1278 1 71 190
1279 1 71 192
1280 1 71 194
1281 1 71 196
1282 1 71 198
1283 1 71 200
1284 1 71 202
1285 1 71 204
1286 1 71 206
1287 1 71 208
1288 1 71 210
1289 1 71 212
1290 1 71 214
1291 1 71 216
1292 1 71 218
1293 1 71 220
1294 1 71 222
1295 1 71 224
1296 1 71 226
1297 1 71 228
1298 1 71 230
1299 1 71 232
1300 1 71 234
1301 1 71 236
1302 1 71 71
1303 1 71 74
1304 1 71 240
