# Pulseq sequence file
# Created by MATLAB mr toolbox

[VERSION]
major 1
minor 4
revision 1

[DEFINITIONS]
AdcRasterTime 1e-07 
AdcSampleTime 2.5e-05 
BlockDurationRaster 1e-05 
CameraAcqDuration 0.013 
CameraAqDelay 0 
CameraInterleaveTR 0.123 
CameraNrDynamics 384 
CameraNrSyncDynamics 10 
FOV 0.2 0.2 0.1575 
GradientRasterTime 1e-05 
Matrix 128 128 
Name gre2d 
RadiofrequencyRasterTime 1e-06 
SliceShifts -0.0735 -0.063 -0.0525 -0.042 -0.0315 -0.021 -0.0105 0 0.0105 0.021 0.0315 0.042 0.0525 0.063 0.0735 
TE 0.006 0.012 
TR 0.025 
TotalDuration 56 
TriggerToScannerAcqDelay 0.00251 
phaseDir_SCT 0 1 0 
readDir_SCT -1 0 0 
sliceDir_SCT 0 0 1 

# Format of blocks:
# NUM DUR RF  GX  GY  GZ  ADC  EXT
[BLOCKS]
    1 178   0   0   0   1  0  2
    2 100   0   0   0   2  0  0
    3 147   0   0   0   0  0  3
    4 100   0   3   4   0  0  0
    5 328   0   5   0   0  1  7
    6 272   0   6   0   0  0  0
    7 328   0   5   0   0  1  8
    8 131   0   7   8   9  0  0
    9 916   0   0   0   0  0  0
   10 178   0   0   0   1  0  9
   11 100   0   0   0   2  0  0
   12 147   0   0   0   0  0  3
   13 100   0   3   4   0  0  0
   14 328   0   5   0   0  1 13
   15 272   0   6   0   0  0  0
   16 328   0   5   0   0  1  8
   17 131   0   7   8   9  0  0
   18 916   0   0   0   0  0  0
   19 178   0   0   0   1  0 14
   20 100   0   0   0   2  0  0
   21 147   0   0   0   0  0  3
   22 100   0   3   4   0  0  0
   23 328   0   5   0   0  1 15
   24 272   0   6   0   0  0  0
   25 328   0   5   0   0  1  8
   26 131   0   7   8   9  0  0
   27 916   0   0   0   0  0  0
   28 178   0   0   0   1  0 16
   29 100   0   0   0   2  0  0
   30 147   0   0   0   0  0  3
   31 100   0   3   4   0  0  0
   32 328   0   5   0   0  1 17
   33 272   0   6   0   0  0  0
   34 328   0   5   0   0  1  8
   35 131   0   7   8   9  0  0
   36 916   0   0   0   0  0  0
   37 178   0   0   0   1  0 18
   38 100   0   0   0   2  0  0
   39 147   0   0   0   0  0  3
   40 100   0   3   4   0  0  0
   41 328   0   5   0   0  1 19
   42 272   0   6   0   0  0  0
   43 328   0   5   0   0  1  8
   44 131   0   7   8   9  0  0
   45 916   0   0   0   0  0  0
   46 178   0   0   0   1  0 20
   47 100   0   0   0   2  0  0
   48 147   0   0   0   0  0  3
   49 100   0   3   4   0  0  0
   50 328   0   5   0   0  1 21
   51 272   0   6   0   0  0  0
   52 328   0   5   0   0  1  8
   53 131   0   7   8   9  0  0
   54 916   0   0   0   0  0  0
   55 178   0   0   0   1  0 22
   56 100   0   0   0   2  0  0
   57 147   0   0   0   0  0  3
   58 100   0   3   4   0  0  0
   59 328   0   5   0   0  1 23
   60 272   0   6   0   0  0  0
   61 328   0   5   0   0  1  8
   62 131   0   7   8   9  0  0
   63 916   0   0   0   0  0  0
   64 178   0   0   0   1  0 24
   65 100   0   0   0   2  0  0
   66 147   0   0   0   0  0  3
   67 100   0   3   4   0  0  0
   68 328   0   5   0   0  1 25
   69 272   0   6   0   0  0  0
   70 328   0   5   0   0  1  8
   71 131   0   7   8   9  0  0
   72 916   0   0   0   0  0  0
   73 178   0   0   0   1  0 26
   74 100   0   0   0   2  0  0
   75 147   0   0   0   0  0  3
   76 100   0   3   4   0  0  0
   77 328   0   5   0   0  1 27
   78 272   0   6   0   0  0  0
   79 328   0   5   0   0  1  8
   80 131   0   7   8   9  0  0
   81 916   0   0   0   0  0  0
   82 178   0   0   0   1  0 28
   83 100   0   0   0   2  0  0
   84 147   0   0   0   0  0  3
   85 100   0   3   4   0  0  0
   86 328   0   5   0   0  1 29
   87 272   0   6   0   0  0  0
   88 328   0   5   0   0  1  8
   89 131   0   7   8   9  0  0
   90 916   0   0   0   0  0  0
   91 400000   0   0   0   0  0 31
   92 178   1   0   0   1  0 32
   93 100   0   0   0   2  0  0
   94 147   0   0   0   0  0  0
   95 100   0   3   4   0  0  0
   96 328   0   5   0   0  0  7
   97 272   0   6   0   0  0  0
   98 328   0   5   0   0  0  8
   99 131   0   7   8   9  0  0
  100 916   0   0   0   0  0  0
  101 178   2   0   0   1  0 32
  102 100   0   0   0   2  0  0
  103 147   0   0   0   0  0  0
  104 100   0   3   4   0  0  0
  105 328   0   5   0   0  0 33
  106 272   0   6   0   0  0  0
  107 328   0   5   0   0  0  8
  108 131   0   7   8   9  0  0
  109 916   0   0   0   0  0  0
  110 178   3   0   0   1  0 32
  111 100   0   0   0   2  0  0
  112 147   0   0   0   0  0  0
  113 100   0   3   4   0  0  0
  114 328   0   5   0   0  0 34
  115 272   0   6   0   0  0  0
  116 328   0   5   0   0  0  8
  117 131   0   7   8   9  0  0
  118 916   0   0   0   0  0  0
  119 178   4   0   0   1  0 32
  120 100   0   0   0   2  0  0
  121 147   0   0   0   0  0  0
  122 100   0   3   4   0  0  0
  123 328   0   5   0   0  0 35
  124 272   0   6   0   0  0  0
  125 328   0   5   0   0  0  8
  126 131   0   7   8   9  0  0
  127 916   0   0   0   0  0  0
  128 178   5   0   0   1  0 32
  129 100   0   0   0   2  0  0
  130 147   0   0   0   0  0  0
  131 100   0   3   4   0  0  0
  132 328   0   5   0   0  0 36
  133 272   0   6   0   0  0  0
  134 328   0   5   0   0  0  8
  135 131   0   7   8   9  0  0
  136 916   0   0   0   0  0  0
  137 178   6   0   0   1  0 32
  138 100   0   0   0   2  0  0
  139 147   0   0   0   0  0  0
  140 100   0   3   4   0  0  0
  141 328   0   5   0   0  0 37
  142 272   0   6   0   0  0  0
  143 328   0   5   0   0  0  8
  144 131   0   7   8   9  0  0
  145 916   0   0   0   0  0  0
  146 178   7   0   0   1  0 32
  147 100   0   0   0   2  0  0
  148 147   0   0   0   0  0  0
  149 100   0   3   4   0  0  0
  150 328   0   5   0   0  0 38
  151 272   0   6   0   0  0  0
  152 328   0   5   0   0  0  8
  153 131   0   7   8   9  0  0
  154 916   0   0   0   0  0  0
  155 178   8   0   0   1  0 32
  156 100   0   0   0   2  0  0
  157 147   0   0   0   0  0  0
  158 100   0   3   4   0  0  0
  159 328   0   5   0   0  0 39
  160 272   0   6   0   0  0  0
  161 328   0   5   0   0  0  8
  162 131   0   7   8   9  0  0
  163 916   0   0   0   0  0  0
  164 178   9   0   0   1  0 32
  165 100   0   0   0   2  0  0
  166 147   0   0   0   0  0  0
  167 100   0   3   4   0  0  0
  168 328   0   5   0   0  0 40
  169 272   0   6   0   0  0  0
  170 328   0   5   0   0  0  8
  171 131   0   7   8   9  0  0
  172 916   0   0   0   0  0  0
  173 178  10   0   0   1  0 32
  174 100   0   0   0   2  0  0
  175 147   0   0   0   0  0  0
  176 100   0   3   4   0  0  0
  177 328   0   5   0   0  0 41
  178 272   0   6   0   0  0  0
  179 328   0   5   0   0  0  8
  180 131   0   7   8   9  0  0
  181 916   0   0   0   0  0  0
  182 178  11   0   0   1  0 32
  183 100   0   0   0   2  0  0
  184 147   0   0   0   0  0  0
  185 100   0   3   4   0  0  0
  186 328   0   5   0   0  0 42
  187 272   0   6   0   0  0  0
  188 328   0   5   0   0  0  8
  189 131   0   7   8   9  0  0
  190 916   0   0   0   0  0  0
  191 178  12   0   0   1  0 32
  192 100   0   0   0   2  0  0
  193 147   0   0   0   0  0  0
  194 100   0   3   4   0  0  0
  195 328   0   5   0   0  0 43
  196 272   0   6   0   0  0  0
  197 328   0   5   0   0  0  8
  198 131   0   7   8   9  0  0
  199 916   0   0   0   0  0  0
  200 178  13   0   0   1  0 32
  201 100   0   0   0   2  0  0
  202 147   0   0   0   0  0  0
  203 100   0   3   4   0  0  0
  204 328   0   5   0   0  0 44
  205 272   0   6   0   0  0  0
  206 328   0   5   0   0  0  8
  207 131   0   7   8   9  0  0
  208 916   0   0   0   0  0  0
  209 178  14   0   0   1  0 32
  210 100   0   0   0   2  0  0
  211 147   0   0   0   0  0  0
  212 100   0   3   4   0  0  0
  213 328   0   5   0   0  0 45
  214 272   0   6   0   0  0  0
  215 328   0   5   0   0  0  8
  216 131   0   7   8   9  0  0
  217 916   0   0   0   0  0  0
  218 178  15   0   0   1  0 32
  219 100   0   0   0   2  0  0
  220 147   0   0   0   0  0  0
  221 100   0   3   4   0  0  0
  222 328   0   5   0   0  0 46
  223 272   0   6   0   0  0  0
  224 328   0   5   0   0  0  8
  225 131   0   7   8   9  0  0
  226 916   0   0   0   0  0  0
  227 178   1   0   0   1  0 32
  228 100   0   0   0   2  0  0
  229 147   0   0   0   0  0  0
  230 100   0   3  10   0  0  0
  231 328   0   5   0   0  0 48
  232 272   0   6   0   0  0  0
  233 328   0   5   0   0  0  8
  234 131   0   7  11   9  0  0
  235 916   0   0   0   0  0  0
  236 178  16   0   0   1  0 32
  237 100   0   0   0   2  0  0
  238 147   0   0   0   0  0  0
  239 100   0   3  10   0  0  0
  240 328   0   5   0   0  0 50
  241 272   0   6   0   0  0  0
  242 328   0   5   0   0  0  8
  243 131   0   7  11   9  0  0
  244 916   0   0   0   0  0  0
  245 178  17   0   0   1  0 32
  246 100   0   0   0   2  0  0
  247 147   0   0   0   0  0  0
  248 100   0   3  10   0  0  0
  249 328   0   5   0   0  0 52
  250 272   0   6   0   0  0  0
  251 328   0   5   0   0  0  8
  252 131   0   7  11   9  0  0
  253 916   0   0   0   0  0  0
  254 178  18   0   0   1  0 32
  255 100   0   0   0   2  0  0
  256 147   0   0   0   0  0  0
  257 100   0   3  10   0  0  0
  258 328   0   5   0   0  0 54
  259 272   0   6   0   0  0  0
  260 328   0   5   0   0  0  8
  261 131   0   7  11   9  0  0
  262 916   0   0   0   0  0  0
  263 178  19   0   0   1  0 32
  264 100   0   0   0   2  0  0
  265 147   0   0   0   0  0  0
  266 100   0   3  10   0  0  0
  267 328   0   5   0   0  0 56
  268 272   0   6   0   0  0  0
  269 328   0   5   0   0  0  8
  270 131   0   7  11   9  0  0
  271 916   0   0   0   0  0  0
  272 178  20   0   0   1  0 32
  273 100   0   0   0   2  0  0
  274 147   0   0   0   0  0  0
  275 100   0   3  10   0  0  0
  276 328   0   5   0   0  0 58
  277 272   0   6   0   0  0  0
  278 328   0   5   0   0  0  8
  279 131   0   7  11   9  0  0
  280 916   0   0   0   0  0  0
  281 178  21   0   0   1  0 32
  282 100   0   0   0   2  0  0
  283 147   0   0   0   0  0  0
  284 100   0   3  10   0  0  0
  285 328   0   5   0   0  0 60
  286 272   0   6   0   0  0  0
  287 328   0   5   0   0  0  8
  288 131   0   7  11   9  0  0
  289 916   0   0   0   0  0  0
  290 178  22   0   0   1  0 32
[RF]
1      51.2012 1 2 0 140 -65333.3 0
2      51.2012 1 2 0 140 -56000 2.04204
3      51.2012 1 2 0 140 -46666.7 6.12611
4      51.2012 1 2 0 140 -37333.3 5.96903
5      51.2012 1 2 0 140 -28000 1.5708
6      51.2012 1 2 0 140 -18666.7 5.49779
7      51.2012 1 2 0 140 -9333.33 5.18363
8      51.2012 1 2 0 140 0 0.628319
9      51.2012 1 2 0 140 9333.33 4.39823
10      51.2012 1 2 0 140 18666.7 3.92699
11      51.2012 1 2 0 140 28000 5.49779
12      51.2012 1 2 0 140 37333.3 2.82743
13      51.2012 1 2 0 140 46666.7 2.19911
14      51.2012 1 2 0 140 56000 3.61283
15      51.2012 1 2 0 140 65333.3 0.785398
16      51.2012 1 2 0 140 -56000 1.25664
17      51.2012 1 2 0 140 -46666.7 4.55531
18      51.2012 1 2 0 140 -37333.3 3.61283
19      51.2012 1 2 0 140 -28000 4.71239
20      51.2012 1 2 0 140 -18666.7 1.5708
21      51.2012 1 2 0 140 -9333.33 0.471239
22      51.2012 1 2 0 140 0 1.41372
23      51.2012 1 2 0 140 18666.7 3.14159
24      51.2012 1 2 0 140 28000 3.92699
25      51.2012 1 2 0 140 37333.3 0.471239
26      51.2012 1 2 0 140 46666.7 5.34071
27      51.2012 1 2 0 140 56000 5.96903
28      51.2012 1 2 0 140 65333.3 2.35619
29      51.2012 1 2 0 140 -65333.3 0.785398
30      51.2012 1 2 0 140 -46666.7 3.76991
31      51.2012 1 2 0 140 -37333.3 2.04204
32      51.2012 1 2 0 140 -28000 2.35619
33      51.2012 1 2 0 140 -18666.7 4.71239
34      51.2012 1 2 0 140 -9333.33 2.82743
35      51.2012 1 2 0 140 0 2.98451
36      51.2012 1 2 0 140 9333.33 5.18363
37      51.2012 1 2 0 140 28000 3.14159
38      51.2012 1 2 0 140 37333.3 5.18363
39      51.2012 1 2 0 140 46666.7 2.98451
40      51.2012 1 2 0 140 56000 2.82743
41      51.2012 1 2 0 140 65333.3 4.71239
42      51.2012 1 2 0 140 -65333.3 2.35619
43      51.2012 1 2 0 140 -37333.3 1.25664
44      51.2012 1 2 0 140 -28000 0.785398
45      51.2012 1 2 0 140 -18666.7 2.35619
46      51.2012 1 2 0 140 -9333.33 5.96903
47      51.2012 1 2 0 140 0 5.34071
48      51.2012 1 2 0 140 9333.33 0.471239
49      51.2012 1 2 0 140 37333.3 4.39823
50      51.2012 1 2 0 140 46666.7 1.41372
51      51.2012 1 2 0 140 56000 0.471239
52      51.2012 1 2 0 140 65333.3 1.5708
53      51.2012 1 2 0 140 -65333.3 4.71239
54      51.2012 1 2 0 140 -56000 3.61283
55      51.2012 1 2 0 140 -28000 0
56      51.2012 1 2 0 140 -18666.7 0.785398
57      51.2012 1 2 0 140 -9333.33 3.61283
58      51.2012 1 2 0 140 0 2.19911
59      51.2012 1 2 0 140 9333.33 2.82743
60      51.2012 1 2 0 140 18666.7 5.49779
61      51.2012 1 2 0 140 46666.7 0.628319
62      51.2012 1 2 0 140 56000 5.18363
63      51.2012 1 2 0 140 65333.3 5.49779
64      51.2012 1 2 0 140 -65333.3 1.5708
65      51.2012 1 2 0 140 -56000 5.96903
66      51.2012 1 2 0 140 -18666.7 0
67      51.2012 1 2 0 140 -9333.33 2.04204
68      51.2012 1 2 0 140 0 6.12611
69      51.2012 1 2 0 140 9333.33 5.96903
70      51.2012 1 2 0 140 18666.7 1.5708
71      51.2012 1 2 0 140 56000 4.39823
72      51.2012 1 2 0 140 65333.3 3.92699
73      51.2012 1 2 0 140 -65333.3 5.49779
74      51.2012 1 2 0 140 -56000 2.82743
75      51.2012 1 2 0 140 -46666.7 2.19911
76      51.2012 1 2 0 140 -9333.33 1.25664
77      51.2012 1 2 0 140 0 4.55531
78      51.2012 1 2 0 140 9333.33 3.61283
79      51.2012 1 2 0 140 18666.7 4.71239
80      51.2012 1 2 0 140 28000 1.5708
81      51.2012 1 2 0 140 65333.3 3.14159
82      51.2012 1 2 0 140 -65333.3 3.92699
83      51.2012 1 2 0 140 -56000 0.471239
84      51.2012 1 2 0 140 -46666.7 5.34071
85      51.2012 1 2 0 140 0 3.76991
86      51.2012 1 2 0 140 9333.33 2.04204
87      51.2012 1 2 0 140 18666.7 2.35619
88      51.2012 1 2 0 140 28000 4.71239
89      51.2012 1 2 0 140 -65333.3 3.14159
90      51.2012 1 2 0 140 -56000 5.18363
91      51.2012 1 2 0 140 -46666.7 2.98451
92      51.2012 1 2 0 140 -37333.3 2.82743
93      51.2012 1 2 0 140 9333.33 1.25664
94      51.2012 1 2 0 140 18666.7 0.785398
95      51.2012 1 2 0 140 28000 2.35619
96      51.2012 1 2 0 140 37333.3 5.96903
97      51.2012 1 2 0 140 -56000 4.39823
98      51.2012 1 2 0 140 -46666.7 1.41372
99      51.2012 1 2 0 140 -37333.3 0.471239
100      51.2012 1 2 0 140 18666.7 0
101      51.2012 1 2 0 140 28000 0.785398
102      51.2012 1 2 0 140 37333.3 3.61283
103      51.2012 1 2 0 140 -46666.7 0.628319
104      51.2012 1 2 0 140 -37333.3 5.18363
105      51.2012 1 2 0 140 -28000 5.49779
106      51.2012 1 2 0 140 28000 0
107      51.2012 1 2 0 140 37333.3 2.04204
108      51.2012 1 2 0 140 46666.7 6.12611
109      51.2012 1 2 0 140 -37333.3 4.39823
110      51.2012 1 2 0 140 -28000 3.92699
111      51.2012 1 2 0 140 37333.3 1.25664
112      51.2012 1 2 0 140 46666.7 4.55531
113      51.2012 1 2 0 140 -28000 3.14159
114      51.2012 1 2 0 140 -18666.7 3.92699
115      51.2012 1 2 0 140 46666.7 3.76991
116      51.2012 1 2 0 140 56000 2.04204
117      51.2012 1 2 0 140 -18666.7 3.14159
118      51.2012 1 2 0 140 56000 1.25664
119      51.2012 1 2 0 140 -9333.33 4.39823
120      51.2012 1 2 0 140 65333.3 0

# Format of trapezoid gradients:
# id amplitude rise flat fall delay
# ..      Hz/m   us   us   us    us
[TRAP]
 1       888889 140 1500 140   0
 2      -847545 140  720 140   0
 3      -344681  60  880  60   0
 4       340426  60  880  60   0
 5       200000  40 3200  40   0
 6      -241791  40 2640  40   0
 7  1.18519e+06 190  890 190   0
 8      -340426  60  880  60   0
 9  1.19048e+06 190  930 190   0
10       335106  60  880  60   0
11      -335106  60  880  60   0
12       329787  60  880  60   0
13      -329787  60  880  60   0
14       324468  60  880  60   0
15      -324468  60  880  60   0
16       315789  50  900  50   0
17      -315789  50  900  50   0
18       310526  50  900  50   0
19      -310526  50  900  50   0
20       305263  50  900  50   0
21      -305263  50  900  50   0
22       300000  50  900  50   0
23      -300000  50  900  50   0
24       294737  50  900  50   0
25      -294737  50  900  50   0
26       289474  50  900  50   0
27      -289474  50  900  50   0
28       284211  50  900  50   0
29      -284211  50  900  50   0
30       278947  50  900  50   0
31      -278947  50  900  50   0
32       273684  50  900  50   0
33      -273684  50  900  50   0
34       268421  50  900  50   0
35      -268421  50  900  50   0
36       263158  50  900  50   0
37      -263158  50  900  50   0
38       255208  40  920  40   0
39      -255208  40  920  40   0
40       250000  40  920  40   0
41      -250000  40  920  40   0
42       244792  40  920  40   0
43      -244792  40  920  40   0
44       239583  40  920  40   0
45      -239583  40  920  40   0
46       234375  40  920  40   0
47      -234375  40  920  40   0
48       229167  40  920  40   0
49      -229167  40  920  40   0
50       223958  40  920  40   0
51      -223958  40  920  40   0
52       218750  40  920  40   0
53      -218750  40  920  40   0
54       213542  40  920  40   0
55      -213542  40  920  40   0
56       208333  40  920  40   0
57      -208333  40  920  40   0
58       203125  40  920  40   0
59      -203125  40  920  40   0
60       197917  40  920  40   0
61      -197917  40  920  40   0
62       190722  30  940  30   0
63      -190722  30  940  30   0
64       185567  30  940  30   0
65      -185567  30  940  30   0
66       180412  30  940  30   0
67      -180412  30  940  30   0
68       175258  30  940  30   0
69      -175258  30  940  30   0
70       170103  30  940  30   0
71      -170103  30  940  30   0
72       164948  30  940  30   0
73      -164948  30  940  30   0
74       159794  30  940  30   0
75      -159794  30  940  30   0
76       154639  30  940  30   0
77      -154639  30  940  30   0
78       149485  30  940  30   0
79      -149485  30  940  30   0
80       144330  30  940  30   0
81      -144330  30  940  30   0
82       139175  30  940  30   0
83      -139175  30  940  30   0
84       134021  30  940  30   0
85      -134021  30  940  30   0
86       127551  20  960  20   0
87      -127551  20  960  20   0
88       122449  20  960  20   0
89      -122449  20  960  20   0
90       117347  20  960  20   0
91      -117347  20  960  20   0
92       112245  20  960  20   0
93      -112245  20  960  20   0
94       107143  20  960  20   0
95      -107143  20  960  20   0
96       102041  20  960  20   0
97      -102041  20  960  20   0
98      96938.8  20  960  20   0
99     -96938.8  20  960  20   0
100      91836.7  20  960  20   0
101     -91836.7  20  960  20   0
102      86734.7  20  960  20   0
103     -86734.7  20  960  20   0
104      81632.7  20  960  20   0
105     -81632.7  20  960  20   0
106      76530.6  20  960  20   0
107     -76530.6  20  960  20   0
108      71428.6  20  960  20   0
109     -71428.6  20  960  20   0
110      66326.5  20  960  20   0
111     -66326.5  20  960  20   0
112      60606.1  10  980  10   0
113     -60606.1  10  980  10   0
114      55555.6  10  980  10   0
115     -55555.6  10  980  10   0
116      50505.1  10  980  10   0
117     -50505.1  10  980  10   0
118      45454.5  10  980  10   0
119     -45454.5  10  980  10   0
120        40404  10  980  10   0
121       -40404  10  980  10   0
122      35353.5  10  980  10   0
123     -35353.5  10  980  10   0
124        30303  10  980  10   0
125       -30303  10  980  10   0
126      25252.5  10  980  10   0
127     -25252.5  10  980  10   0
128        20202  10  980  10   0
129       -20202  10  980  10   0
130      15151.5  10  980  10   0
131     -15151.5  10  980  10   0
132        10101  10  980  10   0
133       -10101  10  980  10   0
134      5050.51  10  980  10   0
135     -5050.51  10  980  10   0
136           -0  10  980  10   0
137            0  10  980  10   0

# Format of ADC events:
# id num dwell delay freq phase
# ..  ..    ns    us   Hz   rad
[ADC]
1 128 25000 40 0 0
2 128 25000 40 0 3.92699
3 128 25000 40 0 4.39823
4 128 25000 40 0 0.628319
5 128 25000 40 0 5.18363
6 128 25000 40 0 5.49779
7 128 25000 40 0 1.5708
8 128 25000 40 0 5.96903
9 128 25000 40 0 6.12611
10 128 25000 40 0 2.04204
11 128 25000 40 0 2.82743
12 128 25000 40 0 2.19911
13 128 25000 40 0 3.61283
14 128 25000 40 0 0.785398
15 128 25000 40 0 1.25664
16 128 25000 40 0 4.55531
17 128 25000 40 0 4.71239
18 128 25000 40 0 0.471239
19 128 25000 40 0 1.41372
20 128 25000 40 0 3.14159
21 128 25000 40 0 5.34071
22 128 25000 40 0 2.35619
23 128 25000 40 0 3.76991
24 128 25000 40 0 2.98451

# Format of extension lists:
# id type ref next_id
# next_id of 0 terminates the list
# Extension list is followed by extension specifications
[EXTENSIONS]
1 1 1 0
2 1 2 1
3 2 1 0
4 1 2 0
5 1 3 4
6 1 4 5
7 1 5 6
8 1 6 0
9 1 7 1
10 1 3 0
11 1 4 10
12 1 5 11
13 1 7 12
14 1 8 1
15 1 8 12
16 1 9 1
17 1 9 12
18 1 10 1
19 1 10 12
20 1 11 1
21 1 11 12
22 1 12 1
23 1 12 12
24 1 13 1
25 1 13 12
26 1 14 1
27 1 14 12
28 1 15 1
29 1 15 12
30 1 4 4
31 1 5 30
32 1 16 4
33 1 17 6
34 1 18 6
35 1 19 6
36 1 20 6
37 1 21 6
38 1 22 6
39 1 23 6
40 1 24 6
41 1 25 6
42 1 26 6
43 1 27 6
44 1 28 6
45 1 29 6
46 1 30 6
47 1 5 5
48 1 31 47
49 1 17 5
50 1 31 49
51 1 18 5
52 1 31 51
53 1 19 5
54 1 31 53
55 1 20 5
56 1 31 55
57 1 21 5
58 1 31 57
59 1 22 5
60 1 31 59
61 1 23 5
62 1 31 61
63 1 24 5
64 1 31 63
65 1 25 5
66 1 31 65
67 1 26 5
68 1 31 67
69 1 27 5
70 1 31 69
71 1 28 5
72 1 31 71
73 1 29 5
74 1 31 73
75 1 30 5
76 1 31 75
77 1 32 47
78 1 32 49
79 1 32 51
80 1 32 53
81 1 32 55
82 1 32 57
83 1 32 59
84 1 32 61
85 1 32 63
86 1 32 65
87 1 32 67
88 1 32 69
89 1 32 71
90 1 32 73
91 1 32 75
92 1 33 47
93 1 33 49
94 1 33 51
95 1 33 53
96 1 33 55
97 1 33 57
98 1 33 59
99 1 33 61
100 1 33 63
101 1 33 65
102 1 33 67
103 1 33 69
104 1 33 71
105 1 33 73
106 1 33 75
107 1 34 47
108 1 34 49
109 1 34 51
110 1 34 53
111 1 34 55
112 1 34 57
113 1 34 59
114 1 34 61
115 1 34 63
116 1 34 65
117 1 34 67
118 1 34 69
119 1 34 71
120 1 34 73
121 1 34 75
122 1 35 47
123 1 35 49
124 1 35 51
125 1 35 53
126 1 35 55
127 1 35 57
128 1 35 59
129 1 35 61
130 1 35 63
131 1 35 65
132 1 35 67
133 1 35 69
134 1 35 71
135 1 35 73
136 1 35 75
137 1 36 47
138 1 36 49
139 1 36 51
140 1 36 53
141 1 36 55
142 1 36 57
143 1 36 59
144 1 36 61
145 1 36 63
146 1 36 65
147 1 36 67
148 1 36 69
149 1 36 71
150 1 36 73
151 1 36 75
152 1 37 47
153 1 37 49
154 1 37 51
155 1 37 53
156 1 37 55
157 1 37 57
158 1 37 59
159 1 37 61
160 1 37 63
161 1 37 65
162 1 37 67
163 1 37 69
164 1 37 71
165 1 37 73
166 1 37 75
167 1 38 47
168 1 38 49
169 1 38 51
170 1 38 53
171 1 38 55
172 1 38 57
173 1 38 59
174 1 38 61
175 1 38 63
176 1 38 65
177 1 38 67
178 1 38 69
179 1 38 71
180 1 38 73
181 1 38 75
182 1 39 47
183 1 39 49
184 1 39 51
185 1 39 53
186 1 39 55
187 1 39 57
188 1 39 59
189 1 39 61
190 1 39 63
191 1 39 65
192 1 39 67
193 1 39 69
194 1 39 71
195 1 39 73
196 1 39 75
197 1 40 47
198 1 40 49
199 1 40 51
200 1 40 53
201 1 40 55
202 1 40 57
203 1 40 59
204 1 40 61
205 1 40 63
206 1 40 65
207 1 40 67
208 1 40 69
209 1 40 71
210 1 40 73
211 1 40 75
212 1 41 47
213 1 41 49
214 1 41 51
215 1 41 53
216 1 41 55
217 1 41 57
218 1 41 59
219 1 41 61
220 1 41 63
221 1 41 65
222 1 41 67
223 1 41 69
224 1 41 71
225 1 41 73
226 1 41 75
227 1 42 47
228 1 42 49
229 1 42 51
230 1 42 53
231 1 42 55
232 1 42 57
233 1 42 59
234 1 42 61
235 1 42 63
236 1 42 65
237 1 42 67
238 1 42 69
239 1 42 71
240 1 42 73
241 1 42 75
242 1 43 47
243 1 43 49
244 1 43 51
245 1 43 53
246 1 43 55
247 1 43 57
248 1 43 59
249 1 43 61
250 1 43 63
251 1 43 65
252 1 43 67
253 1 43 69
254 1 43 71
255 1 43 73
256 1 43 75
257 1 44 47
258 1 44 49
259 1 44 51
260 1 44 53
261 1 44 55
262 1 44 57
263 1 44 59
264 1 44 61
265 1 44 63
266 1 44 65
267 1 44 67
268 1 44 69
269 1 44 71
270 1 44 73
271 1 44 75
272 1 45 47
273 1 45 49
274 1 45 51
275 1 45 53
276 1 45 55
277 1 45 57
278 1 45 59
279 1 45 61
280 1 45 63
281 1 45 65
282 1 45 67
283 1 45 69
284 1 45 71
285 1 45 73
286 1 45 75
287 1 46 47
288 1 46 49
289 1 46 51
290 1 46 53
291 1 46 55
292 1 46 57
293 1 46 59
294 1 46 61
295 1 46 63
296 1 46 65
297 1 46 67
298 1 46 69
299 1 46 71
300 1 46 73
301 1 46 75
302 1 47 47
303 1 47 49
304 1 47 51
305 1 47 53
306 1 47 55
307 1 47 57
308 1 47 59
309 1 47 61
310 1 47 63
311 1 47 65
312 1 47 67
313 1 47 69
314 1 47 71
315 1 47 73
316 1 47 75
317 1 48 47
318 1 48 49
319 1 48 51
320 1 48 53
321 1 48 55
322 1 48 57
323 1 48 59
324 1 48 61
325 1 48 63
326 1 48 65
327 1 48 67
328 1 48 69
329 1 48 71
330 1 48 73
331 1 48 75
332 1 49 47
333 1 49 49
334 1 49 51
335 1 49 53
336 1 49 55
337 1 49 57
338 1 49 59
339 1 49 61
340 1 49 63
341 1 49 65
342 1 49 67
343 1 49 69
344 1 49 71
345 1 49 73
346 1 49 75
347 1 50 47
348 1 50 49
349 1 50 51
350 1 50 53
351 1 50 55
352 1 50 57
353 1 50 59
354 1 50 61
355 1 50 63
356 1 50 65
357 1 50 67
358 1 50 69
359 1 50 71
360 1 50 73
361 1 50 75
362 1 51 47
363 1 51 49
364 1 51 51
365 1 51 53
366 1 51 55
367 1 51 57
368 1 51 59
369 1 51 61
370 1 51 63
371 1 51 65
372 1 51 67
373 1 51 69
374 1 51 71
375 1 51 73
376 1 51 75
377 1 52 47
378 1 52 49
379 1 52 51
380 1 52 53
381 1 52 55
382 1 52 57
383 1 52 59
384 1 52 61
385 1 52 63
386 1 52 65
387 1 52 67
388 1 52 69
389 1 52 71
390 1 52 73
391 1 52 75
392 1 53 47
393 1 53 49
394 1 53 51
395 1 53 53
396 1 53 55
397 1 53 57
398 1 53 59
399 1 53 61
400 1 53 63
401 1 53 65
402 1 53 67
403 1 53 69
404 1 53 71
405 1 53 73
406 1 53 75
407 1 54 47
408 1 54 49
409 1 54 51
410 1 54 53
411 1 54 55
412 1 54 57
413 1 54 59
414 1 54 61
415 1 54 63
416 1 54 65
417 1 54 67
418 1 54 69
419 1 54 71
420 1 54 73
421 1 54 75
422 1 55 47
423 1 55 49
424 1 55 51
425 1 55 53
426 1 55 55
427 1 55 57
428 1 55 59
429 1 55 61
430 1 55 63
431 1 55 65
432 1 55 67
433 1 55 69
434 1 55 71
435 1 55 73
436 1 55 75
437 1 56 47
438 1 56 49
439 1 56 51
440 1 56 53
441 1 56 55
442 1 56 57
443 1 56 59
444 1 56 61
445 1 56 63
446 1 56 65
447 1 56 67
448 1 56 69
449 1 56 71
450 1 56 73
451 1 56 75
452 1 57 47
453 1 57 49
454 1 57 51
455 1 57 53
456 1 57 55
457 1 57 57
458 1 57 59
459 1 57 61
460 1 57 63
461 1 57 65
462 1 57 67
463 1 57 69
464 1 57 71
465 1 57 73
466 1 57 75
467 1 58 47
468 1 58 49
469 1 58 51
470 1 58 53
471 1 58 55
472 1 58 57
473 1 58 59
474 1 58 61
475 1 58 63
476 1 58 65
477 1 58 67
478 1 58 69
479 1 58 71
480 1 58 73
481 1 58 75
482 1 59 47
483 1 59 49
484 1 59 51
485 1 59 53
486 1 59 55
487 1 59 57
488 1 59 59
489 1 59 61
490 1 59 63
491 1 59 65
492 1 59 67
493 1 59 69
494 1 59 71
495 1 59 73
496 1 59 75
497 1 60 47
498 1 60 49
499 1 60 51
500 1 60 53
501 1 60 55
502 1 60 57
503 1 60 59
504 1 60 61
505 1 60 63
506 1 60 65
507 1 60 67
508 1 60 69
509 1 60 71
510 1 60 73
511 1 60 75
512 1 61 47
513 1 61 49
514 1 61 51
515 1 61 53
516 1 61 55
517 1 61 57
518 1 61 59
519 1 61 61
520 1 61 63
521 1 61 65
522 1 61 67
523 1 61 69
524 1 61 71
525 1 61 73
526 1 61 75
527 1 62 47
528 1 62 49
529 1 62 51
530 1 62 53
531 1 62 55
532 1 62 57
533 1 62 59
534 1 62 61
535 1 62 63
536 1 62 65
537 1 62 67
538 1 62 69
539 1 62 71
540 1 62 73
541 1 62 75
542 1 63 47
543 1 63 49
544 1 63 51
545 1 63 53
546 1 63 55
547 1 63 57
548 1 63 59
549 1 63 61
550 1 63 63
551 1 63 65
552 1 63 67
553 1 63 69
554 1 63 71
555 1 63 73
556 1 63 75
557 1 64 47
558 1 64 49
559 1 64 51
560 1 64 53
561 1 64 55
562 1 64 57
563 1 64 59
564 1 64 61
565 1 64 63
566 1 64 65
567 1 64 67
568 1 64 69
569 1 64 71
570 1 64 73
571 1 64 75
572 1 65 47
573 1 65 49
574 1 65 51
575 1 65 53
576 1 65 55
577 1 65 57
578 1 65 59
579 1 65 61
580 1 65 63
581 1 65 65
582 1 65 67
583 1 65 69
584 1 65 71
585 1 65 73
586 1 65 75
587 1 66 47
588 1 66 49
589 1 66 51
590 1 66 53
591 1 66 55
592 1 66 57
593 1 66 59
594 1 66 61
595 1 66 63
596 1 66 65
597 1 66 67
598 1 66 69
599 1 66 71
600 1 66 73
601 1 66 75
602 1 67 47
603 1 67 49
604 1 67 51
605 1 67 53
606 1 67 55
607 1 67 57
608 1 67 59
609 1 67 61
610 1 67 63
611 1 67 65
612 1 67 67
613 1 67 69
614 1 67 71
615 1 67 73
616 1 67 75
617 1 68 47
618 1 68 49
619 1 68 51
620 1 68 53
621 1 68 55
622 1 68 57
623 1 68 59
624 1 68 61
625 1 68 63
626 1 68 65
627 1 68 67
628 1 68 69
629 1 68 71
630 1 68 73
631 1 68 75
632 1 69 47
633 1 69 49
634 1 69 51
635 1 69 53
636 1 69 55
637 1 69 57
638 1 69 59
639 1 69 61
640 1 69 63
641 1 69 65
642 1 69 67
643 1 69 69
644 1 69 71
645 1 69 73
646 1 69 75
647 1 70 47
648 1 70 49
649 1 70 51
650 1 70 53
651 1 70 55
652 1 70 57
653 1 70 59
654 1 70 61
655 1 70 63
656 1 70 65
657 1 70 67
658 1 70 69
659 1 70 71
660 1 70 73
661 1 70 75
662 1 71 47
663 1 71 49
664 1 71 51
665 1 71 53
666 1 71 55
667 1 71 57
668 1 71 59
669 1 71 61
670 1 71 63
671 1 71 65
672 1 71 67
673 1 71 69
674 1 71 71
675 1 71 73
676 1 71 75
677 1 72 47
678 1 72 49
679 1 72 51
680 1 72 53
681 1 72 55
682 1 72 57
683 1 72 59
684 1 72 61
685 1 72 63
686 1 72 65
687 1 72 67
688 1 72 69
689 1 72 71
690 1 72 73
691 1 72 75
692 1 73 47
693 1 73 49
694 1 73 51
695 1 73 53
696 1 73 55
697 1 73 57
698 1 73 59
699 1 73 61
700 1 73 63
701 1 73 65
702 1 73 67
703 1 73 69
704 1 73 71
705 1 73 73
706 1 73 75
707 1 74 47
708 1 74 49
709 1 74 51
710 1 74 53
711 1 74 55
712 1 74 57
713 1 74 59
714 1 74 61
715 1 74 63
716 1 74 65
717 1 74 67
718 1 74 69
719 1 74 71
720 1 74 73
721 1 74 75
722 1 75 47
723 1 75 49
724 1 75 51
725 1 75 53
726 1 75 55
727 1 75 57
728 1 75 59
729 1 75 61
730 1 75 63
731 1 75 65
732 1 75 67
733 1 75 69
734 1 75 71
735 1 75 73
736 1 75 75
737 1 76 47
738 1 76 49
739 1 76 51
740 1 76 53
741 1 76 55
742 1 76 57
743 1 76 59
744 1 76 61
745 1 76 63
746 1 76 65
747 1 76 67
748 1 76 69
749 1 76 71
750 1 76 73
751 1 76 75
752 1 77 47
753 1 77 49
754 1 77 51
755 1 77 53
756 1 77 55
757 1 77 57
758 1 77 59
759 1 77 61
760 1 77 63
761 1 77 65
762 1 77 67
763 1 77 69
764 1 77 71
765 1 77 73
766 1 77 75
767 1 78 47
768 1 78 49
769 1 78 51
770 1 78 53
771 1 78 55
772 1 78 57
773 1 78 59
774 1 78 61
775 1 78 63
776 1 78 65
777 1 78 67
778 1 78 69
779 1 78 71
780 1 78 73
781 1 78 75
782 1 79 47
783 1 79 49
784 1 79 51
785 1 79 53
786 1 79 55
787 1 79 57
788 1 79 59
789 1 79 61
790 1 79 63
791 1 79 65
792 1 79 67
793 1 79 69
794 1 79 71
795 1 79 73
796 1 79 75
797 1 80 47
798 1 80 49
799 1 80 51
800 1 80 53
801 1 80 55
802 1 80 57
803 1 80 59
804 1 80 61
805 1 80 63
